Record #:  1
Notes :
gain 6 zorye running

12/11/20259:37:55 pm
Volts Data

CH1	CH2	CH3	CH4	CH5	CH6	CH7	CH8	
84.525824E-3	5.295467E-3	12.003851E-3	-369.958639E-3	-400.000000E-3	220.246649E-3	104.263353E-3	-400.000000E-3
84.528875E-3	5.295324E-3	11.996078E-3	-369.945955E-3	-400.000000E-3	220.252085E-3	104.268837E-3	-400.000000E-3
84.530735E-3	5.284500E-3	11.995268E-3	-369.932365E-3	-400.000000E-3	220.267057E-3	104.279423E-3	-400.000000E-3
84.530258E-3	5.279684E-3	11.973763E-3	-369.967175E-3	-400.000000E-3	220.233250E-3	104.246092E-3	-400.000000E-3
84.531450E-3	5.288744E-3	11.974096E-3	-370.012283E-3	-400.000000E-3	220.186615E-3	104.201221E-3	-400.000000E-3
84.533930E-3	5.291176E-3	11.977720E-3	-370.010567E-3	-400.000000E-3	220.181656E-3	104.197788E-3	-400.000000E-3
84.536028E-3	5.293465E-3	11.981535E-3	-369.974184E-3	-400.000000E-3	220.206642E-3	104.228115E-3	-400.000000E-3
84.539938E-3	5.289316E-3	12.003326E-3	-369.942236E-3	-400.000000E-3	220.226336E-3	104.251862E-3	-400.000000E-3
84.545851E-3	5.290651E-3	12.029600E-3	-369.951296E-3	-400.000000E-3	220.208406E-3	104.235315E-3	-400.000000E-3
84.550571E-3	5.285692E-3	12.021685E-3	-369.969893E-3	-400.000000E-3	220.186996E-3	104.216719E-3	-400.000000E-3
84.550285E-3	5.286455E-3	12.025833E-3	-369.957781E-3	-400.000000E-3	220.200443E-3	104.230547E-3	-400.000000E-3
84.549141E-3	5.282688E-3	12.025881E-3	-369.952250E-3	-400.000000E-3	220.203447E-3	104.229736E-3	-400.000000E-3
84.546757E-3	5.282021E-3	12.016821E-3	-369.961548E-3	-400.000000E-3	220.190048E-3	104.218912E-3	-400.000000E-3
84.543943E-3	5.272675E-3	12.002897E-3	-369.952011E-3	-400.000000E-3	220.187569E-3	104.226208E-3	-400.000000E-3
84.542513E-3	5.259705E-3	11.987400E-3	-369.914961E-3	-400.000000E-3	220.214796E-3	104.259872E-3	-400.000000E-3
84.540701E-3	5.265856E-3	11.976957E-3	-369.869041E-3	-400.000000E-3	220.251369E-3	104.304266E-3	-400.000000E-3
84.540462E-3	5.272865E-3	11.982536E-3	-369.887590E-3	-400.000000E-3	220.231676E-3	104.291391E-3	-400.000000E-3
84.539795E-3	5.273581E-3	11.987019E-3	-369.892406E-3	-400.000000E-3	220.230532E-3	104.296637E-3	-400.000000E-3
84.538507E-3	5.281353E-3	12.012005E-3	-369.864511E-3	-400.000000E-3	220.260239E-3	104.332256E-3	-400.000000E-3
84.538984E-3	5.282211E-3	12.053537E-3	-369.859886E-3	-400.000000E-3	220.267391E-3	104.341888E-3	-400.000000E-3
84.539843E-3	5.278158E-3	12.067842E-3	-369.890404E-3	-400.000000E-3	220.230007E-3	104.309320E-3	-400.000000E-3
84.539127E-3	5.269003E-3	12.073183E-3	-369.902802E-3	-400.000000E-3	220.205498E-3	104.285383E-3	-400.000000E-3
84.537172E-3	5.249882E-3	12.073660E-3	-369.897795E-3	-400.000000E-3	220.198917E-3	104.283857E-3	-400.000000E-3
84.534359E-3	5.235863E-3	12.065792E-3	-369.848680E-3	-400.000000E-3	220.236349E-3	104.328203E-3	-400.000000E-3
84.532499E-3	5.228186E-3	12.048197E-3	-369.847393E-3	-400.000000E-3	220.235491E-3	104.324627E-3	-400.000000E-3
84.533453E-3	5.218220E-3	12.049437E-3	-369.858646E-3	-400.000000E-3	220.216227E-3	104.306364E-3	-400.000000E-3
84.532976E-3	5.206919E-3	12.046385E-3	-369.881725E-3	-400.000000E-3	220.193577E-3	104.287863E-3	-400.000000E-3
84.534883E-3	5.207491E-3	12.035275E-3	-369.871092E-3	-400.000000E-3	220.205498E-3	104.306507E-3	-400.000000E-3
84.533930E-3	5.208063E-3	12.009764E-3	-369.861603E-3	-400.000000E-3	220.216560E-3	104.321718E-3	-400.000000E-3
84.534740E-3	5.208063E-3	12.002563E-3	-369.897318E-3	-400.000000E-3	220.182133E-3	104.287958E-3	-400.000000E-3
84.535742E-3	5.211115E-3	11.979628E-3	-369.895029E-3	-400.000000E-3	220.180511E-3	104.290199E-3	-400.000000E-3
84.534073E-3	5.216169E-3	11.949873E-3	-369.898415E-3	-400.000000E-3	220.171118E-3	104.280138E-3	-400.000000E-3
84.532404E-3	5.219555E-3	11.925650E-3	-369.928503E-3	-400.000000E-3	220.141363E-3	104.250383E-3	-400.000000E-3
84.532452E-3	5.219460E-3	11.920404E-3	-369.932795E-3	-400.000000E-3	220.136786E-3	104.242039E-3	-400.000000E-3
84.530497E-3	5.215883E-3	11.918354E-3	-369.934130E-3	-400.000000E-3	220.139456E-3	104.235554E-3	-400.000000E-3
84.526443E-3	5.224752E-3	11.909485E-3	-369.968700E-3	-400.000000E-3	220.103216E-3	104.201937E-3	-400.000000E-3
84.525585E-3	5.221510E-3	11.873913E-3	-369.967079E-3	-400.000000E-3	220.098305E-3	104.201746E-3	-400.000000E-3
84.524870E-3	5.216360E-3	11.836195E-3	-369.954062E-3	-400.000000E-3	220.109797E-3	104.216862E-3	-400.000000E-3
84.521103E-3	5.210829E-3	11.826992E-3	-369.944620E-3	-400.000000E-3	220.114517E-3	104.228401E-3	-400.000000E-3
84.517622E-3	5.206728E-3	11.811399E-3	-369.926453E-3	-400.000000E-3	220.131111E-3	104.248619E-3	-400.000000E-3
84.516573E-3	5.199003E-3	11.791897E-3	-369.933462E-3	-400.000000E-3	220.125628E-3	104.246235E-3	-400.000000E-3
84.517431E-3	5.189323E-3	11.785793E-3	-369.965982E-3	-400.000000E-3	220.095205E-3	104.218960E-3	-400.000000E-3
84.515333E-3	5.183649E-3	11.765671E-3	-369.990683E-3	-400.000000E-3	220.072126E-3	104.199696E-3	-400.000000E-3
84.511280E-3	5.176210E-3	11.740351E-3	-369.998932E-3	-400.000000E-3	220.060444E-3	104.185247E-3	-400.000000E-3
84.509659E-3	5.180979E-3	11.720896E-3	-369.980907E-3	-400.000000E-3	220.077944E-3	104.197407E-3	-400.000000E-3
84.509659E-3	5.174351E-3	11.685801E-3	-369.953918E-3	-400.000000E-3	220.107746E-3	104.223919E-3	-400.000000E-3
84.508896E-3	5.165672E-3	11.670637E-3	-369.955683E-3	-400.000000E-3	220.107222E-3	104.220676E-3	-400.000000E-3
84.509087E-3	5.155087E-3	11.682367E-3	-369.995022E-3	-400.000000E-3	220.061970E-3	104.179430E-3	-400.000000E-3
84.508991E-3	5.146885E-3	11.670780E-3	-369.994259E-3	-400.000000E-3	220.061588E-3	104.176903E-3	-400.000000E-3
84.509182E-3	5.141926E-3	11.640501E-3	-369.970989E-3	-400.000000E-3	220.082426E-3	104.193258E-3	-400.000000E-3
84.511185E-3	5.147600E-3	11.641693E-3	-369.967031E-3	-400.000000E-3	220.088053E-3	104.201984E-3	-400.000000E-3
84.511614E-3	5.151176E-3	11.650324E-3	-369.973850E-3	-400.000000E-3	220.077896E-3	104.203176E-3	-400.000000E-3
84.511185E-3	5.149317E-3	11.657763E-3	-369.967747E-3	-400.000000E-3	220.079947E-3	104.212713E-3	-400.000000E-3
84.511948E-3	5.142879E-3	11.664200E-3	-369.974613E-3	-400.000000E-3	220.074463E-3	104.208994E-3	-400.000000E-3
84.513140E-3	5.147409E-3	11.672258E-3	-369.995880E-3	-400.000000E-3	220.053148E-3	104.186583E-3	-400.000000E-3
84.515285E-3	5.149508E-3	11.660051E-3	-369.985390E-3	-400.000000E-3	220.064116E-3	104.200983E-3	-400.000000E-3
84.516335E-3	5.148792E-3	11.650801E-3	-369.974804E-3	-400.000000E-3	220.070934E-3	104.211617E-3	-400.000000E-3
84.515142E-3	5.152225E-3	11.669827E-3	-369.973946E-3	-400.000000E-3	220.073032E-3	104.212379E-3	-400.000000E-3
84.515715E-3	5.145645E-3	11.662292E-3	-369.959927E-3	-400.000000E-3	220.083427E-3	104.223919E-3	-400.000000E-3
84.516716E-3	5.145121E-3	11.651659E-3	-369.978619E-3	-400.000000E-3	220.064354E-3	104.208136E-3	-400.000000E-3
84.515238E-3	5.156660E-3	11.661005E-3	-370.013571E-3	-400.000000E-3	220.033598E-3	104.178667E-3	-400.000000E-3
84.511805E-3	5.167294E-3	11.637306E-3	-370.040751E-3	-400.000000E-3	220.009756E-3	104.156733E-3	-400.000000E-3
84.509850E-3	5.167770E-3	11.602259E-3	-370.025063E-3	-400.000000E-3	220.031881E-3	104.178858E-3	-400.000000E-3
84.509420E-3	5.169821E-3	11.565638E-3	-370.046711E-3	-400.000000E-3	220.013285E-3	104.166317E-3	-400.000000E-3
84.510231E-3	5.169010E-3	11.508751E-3	-370.072460E-3	-400.000000E-3	219.992685E-3	104.147816E-3	-400.000000E-3
84.509277E-3	5.163574E-3	11.452341E-3	-370.088911E-3	-400.000000E-3	219.982290E-3	104.133558E-3	-400.000000E-3
84.509516E-3	5.162287E-3	11.420536E-3	-370.127344E-3	-400.000000E-3	219.949055E-3	104.094934E-3	-400.000000E-3
84.509659E-3	5.173254E-3	11.353207E-3	-370.191193E-3	-400.000000E-3	219.888258E-3	104.036760E-3	-400.000000E-3
84.510946E-3	5.199909E-3	11.287117E-3	-370.254612E-3	-400.000000E-3	219.832325E-3	103.980446E-3	-400.000000E-3
84.510374E-3	5.230093E-3	11.264896E-3	-370.305920E-3	-400.000000E-3	219.790649E-3	103.939056E-3	-400.000000E-3
84.506750E-3	5.235577E-3	11.292839E-3	-370.371151E-3	-400.000000E-3	219.729710E-3	103.877449E-3	-400.000000E-3
84.502506E-3	5.243874E-3	11.404705E-3	-370.362186E-3	-400.000000E-3	219.741821E-3	103.884745E-3	-400.000000E-3
84.501553E-3	5.266094E-3	11.564398E-3	-370.261765E-3	-400.000000E-3	219.851112E-3	103.986120E-3	-400.000000E-3
84.502220E-3	5.281973E-3	11.752176E-3	-370.152903E-3	-400.000000E-3	219.968700E-3	104.097319E-3	-400.000000E-3
84.504557E-3	5.314398E-3	12.006426E-3	-370.067072E-3	-400.000000E-3	220.068121E-3	104.190588E-3	-400.000000E-3
84.504795E-3	5.326176E-3	12.277031E-3	-369.949532E-3	-400.000000E-3	220.199060E-3	104.321194E-3	-400.000000E-3
84.504271E-3	5.346441E-3	12.524176E-3	-369.820976E-3	-400.000000E-3	220.332527E-3	104.452085E-3	-400.000000E-3
84.503365E-3	5.387163E-3	12.727833E-3	-369.700289E-3	-400.000000E-3	220.458984E-3	104.577971E-3	-400.000000E-3
84.502029E-3	5.400848E-3	12.921810E-3	-369.610739E-3	-400.000000E-3	220.554924E-3	104.678679E-3	-400.000000E-3
84.504509E-3	5.374098E-3	12.990856E-3	-369.525146E-3	-400.000000E-3	220.638275E-3	104.765034E-3	-400.000000E-3
84.505749E-3	5.344820E-3	12.867260E-3	-369.554806E-3	-400.000000E-3	220.611858E-3	104.735708E-3	-400.000000E-3
84.504938E-3	5.252314E-3	12.651062E-3	-369.612932E-3	-400.000000E-3	220.557261E-3	104.678679E-3	-400.000000E-3
84.505415E-3	5.132389E-3	12.415361E-3	-369.669533E-3	-400.000000E-3	220.507526E-3	104.629660E-3	-400.000000E-3
84.501839E-3	5.013180E-3	12.242365E-3	-369.726610E-3	-400.000000E-3	220.456123E-3	104.579830E-3	-400.000000E-3
84.500074E-3	4.918575E-3	12.059164E-3	-369.784355E-3	-400.000000E-3	220.401478E-3	104.522133E-3	-400.000000E-3
84.498453E-3	4.889250E-3	11.883307E-3	-369.847202E-3	-400.000000E-3	220.338726E-3	104.455471E-3	-400.000000E-3
84.499884E-3	4.920435E-3	11.828327E-3	-369.894838E-3	-400.000000E-3	220.295858E-3	104.409409E-3	-400.000000E-3
84.499359E-3	4.975414E-3	11.837387E-3	-369.902706E-3	-400.000000E-3	220.289087E-3	104.403162E-3	-400.000000E-3
84.499931E-3	5.023336E-3	11.837864E-3	-369.910765E-3	-400.000000E-3	220.280075E-3	104.394293E-3	-400.000000E-3
84.499502E-3	5.091524E-3	11.790085E-3	-369.980907E-3	-400.000000E-3	220.213890E-3	104.323196E-3	-400.000000E-3
84.498549E-3	5.152273E-3	11.692953E-3	-370.047617E-3	-400.000000E-3	220.154428E-3	104.259205E-3	-400.000000E-3
84.498882E-3	5.185270E-3	11.596251E-3	-370.113850E-3	-400.000000E-3	220.095539E-3	104.195642E-3	-400.000000E-3
84.499598E-3	5.217409E-3	11.601830E-3	-370.123386E-3	-400.000000E-3	220.092487E-3	104.189539E-3	-400.000000E-3
84.502983E-3	5.227184E-3	11.598492E-3	-370.149374E-3	-400.000000E-3	220.066929E-3	104.162121E-3	-400.000000E-3
84.507942E-3	5.222940E-3	11.565018E-3	-370.180559E-3	-400.000000E-3	220.035315E-3	104.124212E-3	-400.000000E-3
84.514093E-3	5.195093E-3	11.551523E-3	-370.186996E-3	-400.000000E-3	220.032263E-3	104.114819E-3	-400.000000E-3
84.516335E-3	5.175018E-3	11.547804E-3	-370.197868E-3	-400.000000E-3	220.026350E-3	104.103899E-3	-400.000000E-3
84.518194E-3	5.168152E-3	11.537075E-3	-370.224905E-3	-400.000000E-3	220.004034E-3	104.074860E-3	-400.000000E-3
84.519815E-3	5.168867E-3	11.541653E-3	-370.217419E-3	-400.000000E-3	220.010233E-3	104.075623E-3	-400.000000E-3
84.522820E-3	5.168819E-3	11.541462E-3	-370.179510E-3	-400.000000E-3	220.046091E-3	104.103088E-3	-400.000000E-3
84.520340E-3	5.165529E-3	11.539602E-3	-370.181942E-3	-400.000000E-3	220.045614E-3	104.102993E-3	-400.000000E-3
84.515285E-3	5.165958E-3	11.559916E-3	-370.198107E-3	-400.000000E-3	220.031023E-3	104.088163E-3	-400.000000E-3
84.510946E-3	5.174780E-3	11.577892E-3	-370.190477E-3	-400.000000E-3	220.036697E-3	104.088068E-3	-400.000000E-3
84.506941E-3	5.172777E-3	11.576843E-3	-370.185232E-3	-400.000000E-3	220.038128E-3	104.087877E-3	-400.000000E-3
84.504652E-3	5.162334E-3	11.581707E-3	-370.223379E-3	-400.000000E-3	220.006561E-3	104.048681E-3	-400.000000E-3
84.504318E-3	5.157137E-3	11.581516E-3	-370.243835E-3	-400.000000E-3	219.985771E-3	104.022169E-3	-400.000000E-3
84.505320E-3	5.160141E-3	11.580515E-3	-370.249844E-3	-400.000000E-3	219.980860E-3	104.012251E-3	-400.000000E-3
84.506321E-3	5.161858E-3	11.579466E-3	-370.233011E-3	-400.000000E-3	220.000219E-3	104.021454E-3	-400.000000E-3
84.501171E-3	5.161715E-3	11.583853E-3	-370.194530E-3	-400.000000E-3	220.039988E-3	104.053783E-3	-400.000000E-3
84.497786E-3	5.158424E-3	11.588144E-3	-370.192909E-3	-400.000000E-3	220.045948E-3	104.052210E-3	-400.000000E-3
84.494638E-3	5.163765E-3	11.602449E-3	-370.196915E-3	-400.000000E-3	220.045614E-3	104.045248E-3	-400.000000E-3
84.498596E-3	5.176353E-3	11.619997E-3	-370.234060E-3	-400.000000E-3	220.006514E-3	104.004431E-3	-400.000000E-3
84.507418E-3	5.178213E-3	11.613703E-3	-370.212221E-3	-400.000000E-3	220.022202E-3	104.022694E-3	-400.000000E-3
84.508514E-3	5.181313E-3	11.610508E-3	-370.204258E-3	-400.000000E-3	220.028019E-3	104.026937E-3	-400.000000E-3
84.508133E-3	5.173445E-3	11.621141E-3	-370.226049E-3	-400.000000E-3	220.001841E-3	103.997612E-3	-400.000000E-3
84.505129E-3	5.171919E-3	11.639118E-3	-370.229816E-3	-400.000000E-3	219.993401E-3	103.989077E-3	-400.000000E-3
84.502125E-3	5.177784E-3	11.633253E-3	-370.201349E-3	-400.000000E-3	220.016098E-3	104.009151E-3	-400.000000E-3
84.496927E-3	5.188894E-3	11.647034E-3	-370.191050E-3	-400.000000E-3	220.023060E-3	104.008245E-3	-400.000000E-3
84.493351E-3	5.195045E-3	11.651325E-3	-370.174932E-3	-400.000000E-3	220.029974E-3	104.009771E-3	-400.000000E-3
84.490013E-3	5.193138E-3	11.643124E-3	-370.130157E-3	-400.000000E-3	220.064926E-3	104.037857E-3	-400.000000E-3
84.488535E-3	5.195761E-3	11.641216E-3	-370.102978E-3	-400.000000E-3	220.083904E-3	104.056358E-3	-400.000000E-3
84.487391E-3	5.201197E-3	11.645937E-3	-370.088673E-3	-400.000000E-3	220.087624E-3	104.062271E-3	-400.000000E-3
84.483433E-3	5.203629E-3	11.657190E-3	-370.078945E-3	-400.000000E-3	220.076847E-3	104.052591E-3	-400.000000E-3
84.477472E-3	5.211973E-3	11.660290E-3	-370.063686E-3	-400.000000E-3	220.077324E-3	104.051447E-3	-400.000000E-3
84.477663E-3	5.220461E-3	11.671829E-3	-370.054150E-3	-400.000000E-3	220.078993E-3	104.043150E-3	-400.000000E-3
84.477997E-3	5.229092E-3	11.682129E-3	-370.029211E-3	-400.000000E-3	220.101976E-3	104.056072E-3	-400.000000E-3
84.477186E-3	5.237103E-3	11.695719E-3	-369.993448E-3	-400.000000E-3	220.134974E-3	104.083252E-3	-400.000000E-3
84.478378E-3	5.243349E-3	11.715269E-3	-369.980621E-3	-400.000000E-3	220.141315E-3	104.086876E-3	-400.000000E-3
84.478664E-3	5.246782E-3	11.726332E-3	-369.974470E-3	-400.000000E-3	220.141888E-3	104.085588E-3	-400.000000E-3
84.477758E-3	5.256462E-3	11.732340E-3	-369.952822E-3	-400.000000E-3	220.164680E-3	104.108381E-3	-400.000000E-3
84.477472E-3	5.263758E-3	11.737347E-3	-369.955778E-3	-400.000000E-3	220.167351E-3	104.111719E-3	-400.000000E-3
84.477615E-3	5.267572E-3	11.745119E-3	-369.978428E-3	-400.000000E-3	220.152521E-3	104.091072E-3	-400.000000E-3
84.478903E-3	5.278111E-3	11.755705E-3	-369.976473E-3	-400.000000E-3	220.161343E-3	104.092741E-3	-400.000000E-3
84.478283E-3	5.291605E-3	11.774540E-3	-369.982100E-3	-400.000000E-3	220.160723E-3	104.085541E-3	-400.000000E-3
84.480095E-3	5.308342E-3	11.798191E-3	-369.992065E-3	-400.000000E-3	220.151711E-3	104.074192E-3	-400.000000E-3
84.478664E-3	5.314779E-3	11.809492E-3	-370.017195E-3	-400.000000E-3	220.126581E-3	104.049110E-3	-400.000000E-3
84.479618E-3	5.315304E-3	11.813545E-3	-370.017290E-3	-400.000000E-3	220.125198E-3	104.049492E-3	-400.000000E-3
84.480095E-3	5.324793E-3	11.831188E-3	-369.994354E-3	-400.000000E-3	220.141459E-3	104.062891E-3	-400.000000E-3
84.482527E-3	5.345583E-3	11.860847E-3	-369.988394E-3	-400.000000E-3	220.142746E-3	104.065132E-3	-400.000000E-3
84.486151E-3	5.360508E-3	11.873150E-3	-370.006037E-3	-400.000000E-3	220.127869E-3	104.044628E-3	-400.000000E-3
84.487009E-3	5.377674E-3	11.902285E-3	-369.998074E-3	-400.000000E-3	220.137596E-3	104.050446E-3	-400.000000E-3
84.488153E-3	5.396414E-3	11.927986E-3	-369.995546E-3	-400.000000E-3	220.138741E-3	104.046488E-3	-400.000000E-3
84.485054E-3	5.413246E-3	11.957073E-3	-369.993305E-3	-400.000000E-3	220.138264E-3	104.039860E-3	-400.000000E-3
84.483242E-3	5.426788E-3	11.978292E-3	-369.973850E-3	-400.000000E-3	220.159292E-3	104.053926E-3	-400.000000E-3
84.483957E-3	5.435848E-3	11.997843E-3	-369.950819E-3	-400.000000E-3	220.184660E-3	104.078913E-3	-400.000000E-3
84.482670E-3	5.451155E-3	12.021780E-3	-369.939280E-3	-400.000000E-3	220.198011E-3	104.091787E-3	-400.000000E-3
84.484434E-3	5.454874E-3	12.036228E-3	-369.918156E-3	-400.000000E-3	220.221090E-3	104.107094E-3	-400.000000E-3
84.489965E-3	5.457544E-3	12.062979E-3	-369.883633E-3	-400.000000E-3	220.249367E-3	104.135895E-3	-400.000000E-3
84.491110E-3	5.469036E-3	12.082672E-3	-369.861174E-3	-400.000000E-3	220.267677E-3	104.158974E-3	-400.000000E-3
84.491158E-3	5.471373E-3	12.092495E-3	-369.855165E-3	-400.000000E-3	220.273781E-3	104.168558E-3	-400.000000E-3
84.493732E-3	5.486059E-3	12.131357E-3	-369.848108E-3	-400.000000E-3	220.283270E-3	104.183531E-3	-400.000000E-3
84.493542E-3	5.487967E-3	12.150669E-3	-369.843435E-3	-400.000000E-3	220.294237E-3	104.191971E-3	-400.000000E-3
84.492445E-3	5.490208E-3	12.161303E-3	-369.839668E-3	-400.000000E-3	220.304298E-3	104.197598E-3	-400.000000E-3
84.491539E-3	5.496788E-3	12.171078E-3	-369.836998E-3	-400.000000E-3	220.312214E-3	104.205608E-3	-400.000000E-3
84.491682E-3	5.487585E-3	12.178516E-3	-369.826794E-3	-400.000000E-3	220.330286E-3	104.221535E-3	-400.000000E-3
84.491396E-3	5.491018E-3	12.181330E-3	-369.837332E-3	-400.000000E-3	220.324802E-3	104.209089E-3	-400.000000E-3
84.491682E-3	5.487776E-3	12.190199E-3	-369.841766E-3	-400.000000E-3	220.319223E-3	104.198027E-3	-400.000000E-3
84.490967E-3	5.472565E-3	12.200832E-3	-369.820976E-3	-400.000000E-3	220.337820E-3	104.216528E-3	-400.000000E-3
84.487104E-3	5.467749E-3	12.219191E-3	-369.785643E-3	-400.000000E-3	220.369053E-3	104.245138E-3	-400.000000E-3
84.485245E-3	5.471516E-3	12.220812E-3	-369.795275E-3	-400.000000E-3	220.361233E-3	104.233599E-3	-400.000000E-3
84.484577E-3	5.464506E-3	12.219858E-3	-369.794893E-3	-400.000000E-3	220.362806E-3	104.230690E-3	-400.000000E-3
84.485769E-3	5.458641E-3	12.211466E-3	-369.795656E-3	-400.000000E-3	220.359373E-3	104.228640E-3	-400.000000E-3
84.489775E-3	5.459118E-3	12.216663E-3	-369.797659E-3	-400.000000E-3	220.358896E-3	104.227543E-3	-400.000000E-3
84.493637E-3	5.464840E-3	12.222958E-3	-369.782448E-3	-400.000000E-3	220.376205E-3	104.244328E-3	-400.000000E-3
84.495735E-3	5.445433E-3	12.192297E-3	-369.771671E-3	-400.000000E-3	220.392799E-3	104.257059E-3	-400.000000E-3
84.494734E-3	5.445623E-3	12.168503E-3	-369.798660E-3	-400.000000E-3	220.370245E-3	104.234648E-3	-400.000000E-3
84.495354E-3	5.439568E-3	12.164783E-3	-369.805384E-3	-400.000000E-3	220.358324E-3	104.231358E-3	-400.000000E-3
84.497881E-3	5.419970E-3	12.164307E-3	-369.793463E-3	-400.000000E-3	220.366144E-3	104.240322E-3	-400.000000E-3
84.501028E-3	5.404758E-3	12.153339E-3	-369.783688E-3	-400.000000E-3	220.377922E-3	104.249382E-3	-400.000000E-3
84.505033E-3	5.410910E-3	12.154055E-3	-369.793034E-3	-400.000000E-3	220.369339E-3	104.238653E-3	-400.000000E-3
84.506655E-3	5.413198E-3	12.143517E-3	-369.797134E-3	-400.000000E-3	220.362806E-3	104.232502E-3	-400.000000E-3
84.506464E-3	5.389690E-3	12.112665E-3	-369.809341E-3	-400.000000E-3	220.353508E-3	104.219866E-3	-400.000000E-3
84.504032E-3	5.390167E-3	12.096834E-3	-369.807625E-3	-400.000000E-3	220.353174E-3	104.220104E-3	-400.000000E-3
84.502029E-3	5.389500E-3	12.096643E-3	-369.800425E-3	-400.000000E-3	220.354033E-3	104.218149E-3	-400.000000E-3
84.500217E-3	5.380869E-3	12.091589E-3	-369.778919E-3	-400.000000E-3	220.371532E-3	104.233313E-3	-400.000000E-3
84.500122E-3	5.384922E-3	12.089205E-3	-369.772291E-3	-400.000000E-3	220.377922E-3	104.232931E-3	-400.000000E-3
84.501743E-3	5.372477E-3	12.078238E-3	-369.772911E-3	-400.000000E-3	220.378780E-3	104.225302E-3	-400.000000E-3
84.500933E-3	5.366325E-3	12.057829E-3	-369.761086E-3	-400.000000E-3	220.388699E-3	104.236031E-3	-400.000000E-3
84.498787E-3	5.377483E-3	12.061644E-3	-369.770622E-3	-400.000000E-3	220.376348E-3	104.227686E-3	-400.000000E-3
84.495687E-3	5.371857E-3	12.061882E-3	-369.752741E-3	-400.000000E-3	220.388794E-3	104.241991E-3	-400.000000E-3
84.495211E-3	5.374861E-3	12.043905E-3	-369.762468E-3	-400.000000E-3	220.377827E-3	104.229593E-3	-400.000000E-3
84.493160E-3	5.337524E-3	12.004280E-3	-369.773626E-3	-400.000000E-3	220.363188E-3	104.212666E-3	-400.000000E-3
84.491444E-3	5.335617E-3	11.997032E-3	-369.737816E-3	-400.000000E-3	220.396090E-3	104.240465E-3	-400.000000E-3
84.487915E-3	5.337048E-3	12.007141E-3	-369.724607E-3	-400.000000E-3	220.408630E-3	104.247856E-3	-400.000000E-3
84.486198E-3	5.324078E-3	12.007618E-3	-369.713640E-3	-400.000000E-3	220.427036E-3	104.262543E-3	-400.000000E-3
84.485340E-3	5.329418E-3	11.994314E-3	-369.721937E-3	-400.000000E-3	220.432568E-3	104.265118E-3	-400.000000E-3
84.487152E-3	5.323505E-3	11.977577E-3	-369.706059E-3	-400.000000E-3	220.461321E-3	104.289007E-3	-400.000000E-3
84.486914E-3	5.312824E-3	11.973763E-3	-369.683599E-3	-400.000000E-3	220.491552E-3	104.315424E-3	-400.000000E-3
84.484196E-3	5.309534E-3	11.964607E-3	-369.692087E-3	-400.000000E-3	220.483446E-3	104.310226E-3	-400.000000E-3
84.481525E-3	5.326891E-3	11.974430E-3	-369.706678E-3	-400.000000E-3	220.461512E-3	104.292583E-3	-400.000000E-3
84.479809E-3	5.305719E-3	11.963081E-3	-369.684362E-3	-400.000000E-3	220.478868E-3	104.310942E-3	-400.000000E-3
84.477377E-3	5.315828E-3	11.965895E-3	-369.649363E-3	-400.000000E-3	220.517206E-3	104.346371E-3	-400.000000E-3
84.477234E-3	5.299664E-3	11.963081E-3	-369.624424E-3	-400.000000E-3	220.547295E-3	104.377604E-3	-400.000000E-3
84.480715E-3	5.279255E-3	11.939430E-3	-369.620275E-3	-400.000000E-3	220.557499E-3	104.383898E-3	-400.000000E-3
84.485817E-3	5.271482E-3	11.922789E-3	-369.615364E-3	-400.000000E-3	220.568037E-3	104.389000E-3	-400.000000E-3
84.487343E-3	5.258989E-3	11.919546E-3	-369.600153E-3	-400.000000E-3	220.585346E-3	104.402208E-3	-400.000000E-3
84.483528E-3	5.257416E-3	11.933136E-3	-369.572020E-3	-400.000000E-3	220.607042E-3	104.422474E-3	-400.000000E-3
84.477329E-3	5.265284E-3	11.948538E-3	-369.521952E-3	-400.000000E-3	220.645475E-3	104.458952E-3	-400.000000E-3
84.473372E-3	5.258894E-3	11.963892E-3	-369.478416E-3	-400.000000E-3	220.684481E-3	104.495430E-3	-400.000000E-3
84.472179E-3	5.268764E-3	11.969423E-3	-369.480848E-3	-400.000000E-3	220.682430E-3	104.491043E-3	-400.000000E-3
84.469986E-3	5.254316E-3	11.954117E-3	-369.490433E-3	-400.000000E-3	220.671654E-3	104.481983E-3	-400.000000E-3
84.470177E-3	5.267429E-3	11.945581E-3	-369.497395E-3	-400.000000E-3	220.662308E-3	104.473019E-3	-400.000000E-3
84.469604E-3	5.285883E-3	11.983061E-3	-369.509125E-3	-400.000000E-3	220.649290E-3	104.454327E-3	-400.000000E-3
84.468651E-3	5.275726E-3	12.003899E-3	-369.493484E-3	-400.000000E-3	220.662260E-3	104.462099E-3	-400.000000E-3
84.465885E-3	5.259752E-3	11.991167E-3	-369.434595E-3	-400.000000E-3	220.720482E-3	104.520702E-3	-400.000000E-3
84.462738E-3	5.252504E-3	12.001038E-3	-369.371939E-3	-400.000000E-3	220.786285E-3	104.589844E-3	-400.000000E-3
84.462881E-3	5.240250E-3	12.018251E-3	-369.337988E-3	-400.000000E-3	220.823002E-3	104.628325E-3	-400.000000E-3
84.465170E-3	5.235147E-3	12.044573E-3	-369.306850E-3	-400.000000E-3	220.853424E-3	104.659605E-3	-400.000000E-3
84.466171E-3	5.229139E-3	12.070990E-3	-369.288349E-3	-400.000000E-3	220.876122E-3	104.677200E-3	-400.000000E-3
84.468079E-3	5.214214E-3	12.067699E-3	-369.305038E-3	-400.000000E-3	220.865679E-3	104.660130E-3	-400.000000E-3
84.471321E-3	5.228758E-3	12.077999E-3	-369.334507E-3	-400.000000E-3	220.834732E-3	104.634809E-3	-400.000000E-3
84.471560E-3	5.214071E-3	12.063265E-3	-369.363499E-3	-400.000000E-3	220.803165E-3	104.606819E-3	-400.000000E-3
84.470654E-3	5.208206E-3	12.032461E-3	-369.387102E-3	-400.000000E-3	220.775080E-3	104.580212E-3	-400.000000E-3
84.470510E-3	5.203104E-3	11.996222E-3	-369.432068E-3	-400.000000E-3	220.724773E-3	104.532623E-3	-400.000000E-3
84.468603E-3	5.196953E-3	11.975193E-3	-369.460440E-3	-400.000000E-3	220.690918E-3	104.502106E-3	-400.000000E-3
84.466600E-3	5.203295E-3	11.956120E-3	-369.475889E-3	-400.000000E-3	220.670271E-3	104.483795E-3	-400.000000E-3
84.466934E-3	5.225229E-3	11.943722E-3	-369.506884E-3	-400.000000E-3	220.634651E-3	104.447556E-3	-400.000000E-3
84.466839E-3	5.211639E-3	11.919403E-3	-369.527769E-3	-400.000000E-3	220.614243E-3	104.423189E-3	-400.000000E-3
84.462309E-3	5.199528E-3	11.905003E-3	-369.538403E-3	-400.000000E-3	220.599937E-3	104.410076E-3	-400.000000E-3
84.460211E-3	5.215597E-3	11.887455E-3	-369.590092E-3	-400.000000E-3	220.536280E-3	104.352093E-3	-400.000000E-3
84.458160E-3	5.209112E-3	11.845636E-3	-369.589710E-3	-400.000000E-3	220.527220E-3	104.343605E-3	-400.000000E-3
84.457207E-3	5.196047E-3	11.832380E-3	-369.536924E-3	-400.000000E-3	220.582867E-3	104.394484E-3	-400.000000E-3
84.459305E-3	5.198193E-3	11.844015E-3	-369.518328E-3	-400.000000E-3	220.601654E-3	104.413652E-3	-400.000000E-3
84.459591E-3	5.184937E-3	11.824894E-3	-369.489145E-3	-400.000000E-3	220.630598E-3	104.443502E-3	-400.000000E-3
84.460974E-3	5.167437E-3	11.787653E-3	-369.485331E-3	-400.000000E-3	220.637465E-3	104.452705E-3	-400.000000E-3
84.460926E-3	5.182791E-3	11.774349E-3	-369.482470E-3	-400.000000E-3	220.646048E-3	104.463243E-3	-400.000000E-3
84.460592E-3	5.180407E-3	11.726189E-3	-369.515610E-3	-400.000000E-3	220.612812E-3	104.428196E-3	-400.000000E-3
84.460402E-3	5.175924E-3	11.710072E-3	-369.515848E-3	-400.000000E-3	220.609522E-3	104.424191E-3	-400.000000E-3
84.459448E-3	5.166578E-3	11.717892E-3	-369.474125E-3	-400.000000E-3	220.650530E-3	104.462337E-3	-400.000000E-3
84.458637E-3	5.184221E-3	11.734152E-3	-369.471121E-3	-400.000000E-3	220.649576E-3	104.457092E-3	-400.000000E-3
84.458685E-3	5.170536E-3	11.731386E-3	-369.464970E-3	-400.000000E-3	220.651436E-3	104.457235E-3	-400.000000E-3
84.458542E-3	5.139112E-3	11.713409E-3	-369.486332E-3	-400.000000E-3	220.630693E-3	104.437065E-3	-400.000000E-3
84.456682E-3	5.131674E-3	11.703777E-3	-369.478750E-3	-400.000000E-3	220.638800E-3	104.447269E-3	-400.000000E-3
84.453869E-3	5.131197E-3	11.708736E-3	-369.489431E-3	-400.000000E-3	220.620012E-3	104.429626E-3	-400.000000E-3
84.449673E-3	5.143023E-3	11.705875E-3	-369.518852E-3	-400.000000E-3	220.576382E-3	104.389048E-3	-400.000000E-3
84.444332E-3	5.158138E-3	11.714649E-3	-369.513321E-3	-400.000000E-3	220.571566E-3	104.380989E-3	-400.000000E-3
84.443998E-3	5.155802E-3	11.715841E-3	-369.492102E-3	-400.000000E-3	220.589113E-3	104.397011E-3	-400.000000E-3
84.442282E-3	5.130959E-3	11.716175E-3	-369.476891E-3	-400.000000E-3	220.602226E-3	104.416704E-3	-400.000000E-3
84.442091E-3	5.109358E-3	11.701155E-3	-369.441462E-3	-400.000000E-3	220.633316E-3	104.453754E-3	-400.000000E-3
84.440804E-3	5.121422E-3	11.703157E-3	-369.397497E-3	-400.000000E-3	220.674706E-3	104.496193E-3	-400.000000E-3
84.440422E-3	5.132580E-3	11.698246E-3	-369.397211E-3	-400.000000E-3	220.675993E-3	104.500389E-3	-400.000000E-3
84.439039E-3	5.134439E-3	11.688852E-3	-369.386768E-3	-400.000000E-3	220.686960E-3	104.515457E-3	-400.000000E-3
84.435987E-3	5.131197E-3	11.681890E-3	-369.375038E-3	-400.000000E-3	220.698547E-3	104.535198E-3	-400.000000E-3
84.434843E-3	5.120468E-3	11.668396E-3	-369.394159E-3	-400.000000E-3	220.677805E-3	104.520512E-3	-400.000000E-3
84.435272E-3	5.125141E-3	11.649418E-3	-369.447184E-3	-400.000000E-3	220.624733E-3	104.470444E-3	-400.000000E-3
84.439421E-3	5.146074E-3	11.647797E-3	-369.479418E-3	-400.000000E-3	220.591021E-3	104.437733E-3	-400.000000E-3
84.444714E-3	5.152512E-3	11.631250E-3	-369.477558E-3	-400.000000E-3	220.587873E-3	104.436207E-3	-400.000000E-3
84.447193E-3	5.167580E-3	11.610603E-3	-369.490099E-3	-400.000000E-3	220.572281E-3	104.417515E-3	-400.000000E-3
84.446573E-3	5.165195E-3	11.569452E-3	-369.520235E-3	-400.000000E-3	220.538378E-3	104.385662E-3	-400.000000E-3
84.444475E-3	5.151701E-3	11.506224E-3	-369.548750E-3	-400.000000E-3	220.506573E-3	104.351473E-3	-400.000000E-3
84.442663E-3	5.165529E-3	11.474657E-3	-369.578457E-3	-400.000000E-3	220.472479E-3	104.308987E-3	-400.000000E-3
84.440422E-3	5.169535E-3	11.411333E-3	-369.629478E-3	-400.000000E-3	220.417786E-3	104.249620E-3	-400.000000E-3
84.441090E-3	5.198765E-3	11.337709E-3	-369.646835E-3	-400.000000E-3	220.393229E-3	104.224968E-3	-400.000000E-3
84.438848E-3	5.197954E-3	11.273050E-3	-369.663668E-3	-400.000000E-3	220.370817E-3	104.201984E-3	-400.000000E-3
84.437799E-3	5.204344E-3	11.291361E-3	-369.657516E-3	-400.000000E-3	220.371056E-3	104.206371E-3	-400.000000E-3
84.435749E-3	5.216360E-3	11.374998E-3	-369.621134E-3	-400.000000E-3	220.404625E-3	104.244328E-3	-400.000000E-3
84.433460E-3	5.227041E-3	11.499357E-3	-369.582844E-3	-400.000000E-3	220.440388E-3	104.290962E-3	-400.000000E-3
84.433222E-3	5.263710E-3	11.697674E-3	-369.510078E-3	-400.000000E-3	220.506144E-3	104.365063E-3	-400.000000E-3
84.433985E-3	5.323076E-3	11.949444E-3	-369.397926E-3	-400.000000E-3	220.607185E-3	104.468870E-3	-400.000000E-3
84.434319E-3	5.364847E-3	12.238932E-3	-369.243097E-3	-400.000000E-3	220.753145E-3	104.615498E-3	-400.000000E-3
84.434462E-3	5.405760E-3	12.513208E-3	-369.121075E-3	-400.000000E-3	220.865679E-3	104.730034E-3	-400.000000E-3
84.432888E-3	5.417919E-3	12.716007E-3	-368.994045E-3	-400.000000E-3	220.988894E-3	104.848051E-3	-400.000000E-3
84.434462E-3	5.459929E-3	12.917376E-3	-368.853331E-3	-400.000000E-3	221.122694E-3	104.980278E-3	-400.000000E-3
84.435654E-3	5.445004E-3	13.028002E-3	-368.739462E-3	-400.000000E-3	221.233082E-3	105.088854E-3	-400.000000E-3
84.436226E-3	5.403519E-3	12.870836E-3	-368.785238E-3	-400.000000E-3	221.184397E-3	105.032778E-3	-400.000000E-3
84.436321E-3	5.331516E-3	12.638903E-3	-368.877029E-3	-400.000000E-3	221.082783E-3	104.931068E-3	-400.000000E-3
84.435940E-3	5.223513E-3	12.455940E-3	-368.901443E-3	-400.000000E-3	221.054363E-3	104.902029E-3	-400.000000E-3
84.434223E-3	5.069447E-3	12.272549E-3	-368.916607E-3	-400.000000E-3	221.039438E-3	104.883575E-3	-400.000000E-3
84.431648E-3	4.959726E-3	12.138033E-3	-368.930769E-3	-400.000000E-3	221.026850E-3	104.872322E-3	-400.000000E-3
84.430838E-3	4.875422E-3	11.980581E-3	-368.962812E-3	-400.000000E-3	220.992374E-3	104.839230E-3	-400.000000E-3
84.431553E-3	4.887199E-3	11.900520E-3	-368.997335E-3	-400.000000E-3	220.956755E-3	104.800034E-3	-400.000000E-3
84.431696E-3	4.948187E-3	11.890173E-3	-369.044256E-3	-400.000000E-3	220.907307E-3	104.749537E-3	-400.000000E-3
84.429407E-3	4.972458E-3	11.889267E-3	-369.058657E-3	-400.000000E-3	220.889091E-3	104.730320E-3	-400.000000E-3
84.426832E-3	5.051994E-3	11.868429E-3	-369.081450E-3	-400.000000E-3	220.862770E-3	104.702044E-3	-400.000000E-3
84.424639E-3	5.125666E-3	11.800146E-3	-369.150209E-3	-400.000000E-3	220.783186E-3	104.622412E-3	-400.000000E-3
84.423733E-3	5.186081E-3	11.717749E-3	-369.219255E-3	-400.000000E-3	220.709467E-3	104.547215E-3	-400.000000E-3
84.422445E-3	5.203533E-3	11.657333E-3	-369.246340E-3	-400.000000E-3	220.678568E-3	104.517603E-3	-400.000000E-3
84.422445E-3	5.214024E-3	11.599159E-3	-369.244051E-3	-400.000000E-3	220.672560E-3	104.519796E-3	-400.000000E-3
84.423256E-3	5.220604E-3	11.566973E-3	-369.253826E-3	-400.000000E-3	220.653582E-3	104.505301E-3	-400.000000E-3
84.419870E-3	5.229473E-3	11.562872E-3	-369.274282E-3	-400.000000E-3	220.622826E-3	104.472542E-3	-400.000000E-3
84.418201E-3	5.192614E-3	11.576319E-3	-369.272804E-3	-400.000000E-3	220.613384E-3	104.456425E-3	-400.000000E-3
84.419727E-3	5.165005E-3	11.588001E-3	-369.268847E-3	-400.000000E-3	220.615435E-3	104.454088E-3	-400.000000E-3
84.418344E-3	5.171299E-3	11.612701E-3	-369.226789E-3	-400.000000E-3	220.650387E-3	104.494762E-3	-400.000000E-3
84.414482E-3	5.158615E-3	11.604023E-3	-369.220352E-3	-400.000000E-3	220.647383E-3	104.493093E-3	-400.000000E-3
84.412956E-3	5.163956E-3	11.610889E-3	-369.224167E-3	-400.000000E-3	220.643473E-3	104.481125E-3	-400.000000E-3
84.409809E-3	5.172157E-3	11.605692E-3	-369.230461E-3	-400.000000E-3	220.643806E-3	104.474020E-3	-400.000000E-3
84.409428E-3	5.146837E-3	11.588717E-3	-369.212961E-3	-400.000000E-3	220.664406E-3	104.486275E-3	-400.000000E-3
84.410000E-3	5.150604E-3	11.576080E-3	-369.211054E-3	-400.000000E-3	220.663786E-3	104.484749E-3	-400.000000E-3
84.406757E-3	5.183744E-3	11.575747E-3	-369.223499E-3	-400.000000E-3	220.648575E-3	104.472828E-3	-400.000000E-3
84.402943E-3	5.141115E-3	11.552477E-3	-369.224024E-3	-400.000000E-3	220.643568E-3	104.471445E-3	-400.000000E-3
84.401560E-3	5.126381E-3	11.545467E-3	-369.200659E-3	-400.000000E-3	220.668840E-3	104.498339E-3	-400.000000E-3
84.398603E-3	5.136681E-3	11.578512E-3	-369.188833E-3	-400.000000E-3	220.685625E-3	104.511309E-3	-400.000000E-3
84.396315E-3	5.138063E-3	11.605167E-3	-369.212961E-3	-400.000000E-3	220.660591E-3	104.485941E-3	-400.000000E-3
84.395123E-3	5.142021E-3	11.612463E-3	-369.228458E-3	-400.000000E-3	220.636845E-3	104.465628E-3	-400.000000E-3
84.394503E-3	5.160475E-3	11.623430E-3	-369.204855E-3	-400.000000E-3	220.652866E-3	104.482174E-3	-400.000000E-3
84.392023E-3	5.162954E-3	11.639404E-3	-369.181919E-3	-400.000000E-3	220.673132E-3	104.501009E-3	-400.000000E-3
84.389496E-3	5.158949E-3	11.635590E-3	-369.175434E-3	-400.000000E-3	220.676804E-3	104.500294E-3	-400.000000E-3
84.387589E-3	5.171728E-3	11.627483E-3	-369.168949E-3	-400.000000E-3	220.677376E-3	104.500818E-3	-400.000000E-3
84.387207E-3	5.159998E-3	11.623573E-3	-369.142056E-3	-400.000000E-3	220.702696E-3	104.526567E-3	-400.000000E-3
84.389544E-3	5.156946E-3	11.628914E-3	-369.153023E-3	-400.000000E-3	220.694685E-3	104.514074E-3	-400.000000E-3
84.388256E-3	5.160999E-3	11.639690E-3	-369.142580E-3	-400.000000E-3	220.700693E-3	104.523706E-3	-400.000000E-3
84.386969E-3	5.151272E-3	11.664534E-3	-369.152975E-3	-400.000000E-3	220.681238E-3	104.508781E-3	-400.000000E-3
84.384966E-3	5.163336E-3	11.671591E-3	-369.194221E-3	-400.000000E-3	220.631409E-3	104.462194E-3	-400.000000E-3
84.383774E-3	5.155993E-3	11.667538E-3	-369.165707E-3	-400.000000E-3	220.652628E-3	104.486561E-3	-400.000000E-3
84.382915E-3	5.178976E-3	11.662197E-3	-369.132233E-3	-400.000000E-3	220.681906E-3	104.517317E-3	-400.000000E-3
84.382105E-3	5.186129E-3	11.680079E-3	-369.095659E-3	-400.000000E-3	220.712948E-3	104.552126E-3	-400.000000E-3
84.381485E-3	5.182266E-3	11.694574E-3	-369.075012E-3	-400.000000E-3	220.728827E-3	104.570436E-3	-400.000000E-3
84.377098E-3	5.208254E-3	11.702347E-3	-369.070721E-3	-400.000000E-3	220.730495E-3	104.580069E-3	-400.000000E-3
84.372807E-3	5.222988E-3	11.711788E-3	-369.059181E-3	-400.000000E-3	220.738935E-3	104.587698E-3	-400.000000E-3
84.371805E-3	5.207920E-3	11.713886E-3	-369.059849E-3	-400.000000E-3	220.729542E-3	104.575396E-3	-400.000000E-3
84.371233E-3	5.226660E-3	11.721563E-3	-369.048309E-3	-400.000000E-3	220.738554E-3	104.583263E-3	-400.000000E-3
84.371281E-3	5.221510E-3	11.724186E-3	-369.041443E-3	-400.000000E-3	220.744181E-3	104.583406E-3	-400.000000E-3
84.371519E-3	5.220413E-3	11.735392E-3	-369.049788E-3	-400.000000E-3	220.725250E-3	104.565859E-3	-400.000000E-3
84.369898E-3	5.219793E-3	11.750841E-3	-369.041157E-3	-400.000000E-3	220.727634E-3	104.570055E-3	-400.000000E-3
84.367800E-3	5.222702E-3	11.758709E-3	-369.009304E-3	-400.000000E-3	220.751810E-3	104.593706E-3	-400.000000E-3
84.365606E-3	5.223656E-3	11.762857E-3	-368.987131E-3	-400.000000E-3	220.765305E-3	104.606199E-3	-400.000000E-3
84.366798E-3	5.227709E-3	11.768818E-3	-369.002581E-3	-400.000000E-3	220.739746E-3	104.580545E-3	-400.000000E-3
84.367752E-3	5.259943E-3	11.799622E-3	-368.983126E-3	-400.000000E-3	220.753002E-3	104.595423E-3	-400.000000E-3
84.368467E-3	5.270720E-3	11.817884E-3	-368.976164E-3	-400.000000E-3	220.756197E-3	104.599905E-3	-400.000000E-3
84.371376E-3	5.266523E-3	11.820126E-3	-368.969536E-3	-400.000000E-3	220.750999E-3	104.599714E-3	-400.000000E-3
84.372520E-3	5.260420E-3	11.808109E-3	-368.925858E-3	-400.000000E-3	220.787334E-3	104.639959E-3	-400.000000E-3
84.369326E-3	5.275726E-3	11.807966E-3	-368.913937E-3	-400.000000E-3	220.796347E-3	104.650164E-3	-400.000000E-3
84.366226E-3	5.272293E-3	11.842680E-3	-368.925667E-3	-400.000000E-3	220.781851E-3	104.638624E-3	-400.000000E-3
84.363365E-3	5.288982E-3	11.881447E-3	-368.923998E-3	-400.000000E-3	220.783520E-3	104.640675E-3	-400.000000E-3
84.359932E-3	5.328941E-3	11.892939E-3	-368.904877E-3	-400.000000E-3	220.794821E-3	104.657221E-3	-400.000000E-3
84.357882E-3	5.346203E-3	11.895704E-3	-368.899107E-3	-400.000000E-3	220.794821E-3	104.657078E-3	-400.000000E-3
84.356976E-3	5.361176E-3	11.942339E-3	-368.891764E-3	-400.000000E-3	220.798969E-3	104.656219E-3	-400.000000E-3
84.357309E-3	5.354118E-3	11.985111E-3	-368.856144E-3	-400.000000E-3	220.824289E-3	104.676676E-3	-400.000000E-3
84.356976E-3	5.342817E-3	12.012911E-3	-368.822336E-3	-400.000000E-3	220.849133E-3	104.702282E-3	-400.000000E-3
84.358549E-3	5.358076E-3	12.038088E-3	-368.814039E-3	-400.000000E-3	220.852613E-3	104.712248E-3	-400.000000E-3
84.359837E-3	5.371904E-3	12.053108E-3	-368.812752E-3	-400.000000E-3	220.853281E-3	104.710293E-3	-400.000000E-3
84.358644E-3	5.386925E-3	12.061357E-3	-368.783855E-3	-400.000000E-3	220.883608E-3	104.730892E-3	-400.000000E-3
84.360123E-3	5.382252E-3	12.059021E-3	-368.787146E-3	-400.000000E-3	220.874214E-3	104.717684E-3	-400.000000E-3
84.360552E-3	5.379581E-3	12.067413E-3	-368.797588E-3	-400.000000E-3	220.861387E-3	104.702044E-3	-400.000000E-3
84.361696E-3	5.371189E-3	12.075090E-3	-368.787003E-3	-400.000000E-3	220.866299E-3	104.710722E-3	-400.000000E-3
84.362268E-3	5.381012E-3	12.093687E-3	-368.751192E-3	-400.000000E-3	220.893288E-3	104.746628E-3	-400.000000E-3
84.364605E-3	5.381489E-3	12.102747E-3	-368.725204E-3	-400.000000E-3	220.914507E-3	104.769802E-3	-400.000000E-3
84.367847E-3	5.378628E-3	12.107897E-3	-368.733835E-3	-400.000000E-3	220.901632E-3	104.755449E-3	-400.000000E-3
84.371424E-3	5.375910E-3	12.141848E-3	-368.699169E-3	-400.000000E-3	220.926332E-3	104.781055E-3	-400.000000E-3
84.371424E-3	5.381346E-3	12.178230E-3	-368.657923E-3	-400.000000E-3	220.954132E-3	104.810143E-3	-400.000000E-3
84.368277E-3	5.403900E-3	12.207890E-3	-368.635178E-3	-400.000000E-3	220.971346E-3	104.827452E-3	-400.000000E-3
84.364462E-3	5.379438E-3	12.204409E-3	-368.605661E-3	-400.000000E-3	220.985222E-3	104.844475E-3	-400.000000E-3
84.360981E-3	5.359173E-3	12.184095E-3	-368.599892E-3	-400.000000E-3	220.982265E-3	104.843760E-3	-400.000000E-3
84.359074E-3	5.357456E-3	12.172270E-3	-368.612003E-3	-400.000000E-3	220.962811E-3	104.826975E-3	-400.000000E-3
84.356022E-3	5.360270E-3	12.163591E-3	-368.622112E-3	-400.000000E-3	220.948410E-3	104.812050E-3	-400.000000E-3
84.355164E-3	5.350924E-3	12.138224E-3	-368.583536E-3	-400.000000E-3	220.981264E-3	104.845572E-3	-400.000000E-3
84.355927E-3	5.349827E-3	12.134457E-3	-368.548679E-3	-400.000000E-3	221.015596E-3	104.881191E-3	-400.000000E-3
84.354782E-3	5.338192E-3	12.125206E-3	-368.547773E-3	-400.000000E-3	221.015644E-3	104.880238E-3	-400.000000E-3
84.351492E-3	5.328989E-3	12.107563E-3	-368.550873E-3	-400.000000E-3	221.002150E-3	104.870129E-3	-400.000000E-3
84.350109E-3	5.331659E-3	12.106371E-3	-368.582392E-3	-400.000000E-3	220.963287E-3	104.833508E-3	-400.000000E-3
84.349060E-3	5.330467E-3	12.111521E-3	-368.548918E-3	-400.000000E-3	220.989609E-3	104.866219E-3	-400.000000E-3
84.348488E-3	5.322504E-3	12.107754E-3	-368.516254E-3	-400.000000E-3	221.020746E-3	104.898691E-3	-400.000000E-3
84.347963E-3	5.322886E-3	12.117672E-3	-368.529129E-3	-400.000000E-3	221.003008E-3	104.877996E-3	-400.000000E-3
84.347582E-3	5.311489E-3	12.129068E-3	-368.545818E-3	-400.000000E-3	220.979786E-3	104.849482E-3	-400.000000E-3
84.343624E-3	5.300426E-3	12.113380E-3	-368.475962E-3	-400.000000E-3	221.043253E-3	104.907036E-3	-400.000000E-3
84.340858E-3	5.289507E-3	12.094545E-3	-368.446255E-3	-400.000000E-3	221.066904E-3	104.932547E-3	-400.000000E-3
84.340429E-3	5.281305E-3	12.080097E-3	-368.472910E-3	-400.000000E-3	221.033144E-3	104.904938E-3	-400.000000E-3
84.340715E-3	5.284405E-3	12.068653E-3	-368.475533E-3	-400.000000E-3	221.020412E-3	104.899883E-3	-400.000000E-3
84.338379E-3	5.281830E-3	12.044334E-3	-368.463087E-3	-400.000000E-3	221.027184E-3	104.909372E-3	-400.000000E-3
84.335184E-3	5.290174E-3	12.018156E-3	-368.469334E-3	-400.000000E-3	221.022367E-3	104.904366E-3	-400.000000E-3
84.334373E-3	5.287886E-3	12.011385E-3	-368.476629E-3	-400.000000E-3	221.014118E-3	104.894781E-3	-400.000000E-3
84.336233E-3	5.291033E-3	12.006187E-3	-368.481922E-3	-400.000000E-3	221.012878E-3	104.888058E-3	-400.000000E-3
84.337902E-3	5.282402E-3	11.986876E-3	-368.469286E-3	-400.000000E-3	221.028900E-3	104.900312E-3	-400.000000E-3
84.341812E-3	5.266333E-3	11.956263E-3	-368.464470E-3	-400.000000E-3	221.037865E-3	104.905081E-3	-400.000000E-3
84.342957E-3	5.255413E-3	11.950636E-3	-368.463564E-3	-400.000000E-3	221.039200E-3	104.905891E-3	-400.000000E-3
84.343004E-3	5.249166E-3	11.954832E-3	-368.500566E-3	-400.000000E-3	221.003580E-3	104.873991E-3	-400.000000E-3
84.345388E-3	5.255842E-3	11.958742E-3	-368.526506E-3	-400.000000E-3	220.972013E-3	104.847145E-3	-400.000000E-3
84.346962E-3	5.254936E-3	11.968422E-3	-368.506861E-3	-400.000000E-3	220.986080E-3	104.860592E-3	-400.000000E-3
84.348536E-3	5.254173E-3	11.978340E-3	-368.480062E-3	-400.000000E-3	221.014214E-3	104.887152E-3	-400.000000E-3
84.348726E-3	5.242205E-3	11.970377E-3	-368.461132E-3	-400.000000E-3	221.036863E-3	104.902315E-3	-400.000000E-3
84.348106E-3	5.238390E-3	11.953974E-3	-368.442345E-3	-400.000000E-3	221.060181E-3	104.919386E-3	-400.000000E-3
84.348488E-3	5.242968E-3	11.958504E-3	-368.433619E-3	-400.000000E-3	221.070814E-3	104.930162E-3	-400.000000E-3
84.349442E-3	5.248737E-3	11.972046E-3	-368.422794E-3	-400.000000E-3	221.082211E-3	104.944277E-3	-400.000000E-3
84.351587E-3	5.232477E-3	11.970329E-3	-368.420458E-3	-400.000000E-3	221.087027E-3	104.948187E-3	-400.000000E-3
84.352446E-3	5.223656E-3	11.969709E-3	-368.413687E-3	-400.000000E-3	221.091127E-3	104.948854E-3	-400.000000E-3
84.353685E-3	5.207872E-3	11.962938E-3	-368.383503E-3	-400.000000E-3	221.114588E-3	104.971075E-3	-400.000000E-3
84.353971E-3	5.207634E-3	11.954212E-3	-368.344498E-3	-400.000000E-3	221.145964E-3	104.997492E-3	-400.000000E-3
84.356451E-3	5.217838E-3	11.964989E-3	-368.316936E-3	-400.000000E-3	221.169043E-3	105.018759E-3	-400.000000E-3
84.356022E-3	5.221176E-3	11.977482E-3	-368.310118E-3	-400.000000E-3	221.175241E-3	105.021095E-3	-400.000000E-3
84.356022E-3	5.221558E-3	11.983776E-3	-368.310308E-3	-400.000000E-3	221.179962E-3	105.017948E-3	-400.000000E-3
84.356833E-3	5.211258E-3	11.968184E-3	-368.317270E-3	-400.000000E-3	221.174526E-3	105.006552E-3	-400.000000E-3
84.354687E-3	5.214500E-3	11.969757E-3	-368.314266E-3	-400.000000E-3	221.176958E-3	105.008411E-3	-400.000000E-3
84.351730E-3	5.207729E-3	11.968613E-3	-368.309736E-3	-400.000000E-3	221.181679E-3	105.018377E-3	-400.000000E-3
84.350157E-3	5.197668E-3	11.963987E-3	-368.299818E-3	-400.000000E-3	221.186161E-3	105.023861E-3	-400.000000E-3
84.349203E-3	5.199051E-3	11.949730E-3	-368.286657E-3	-400.000000E-3	221.197701E-3	105.030441E-3	-400.000000E-3
84.349108E-3	5.205679E-3	11.938238E-3	-368.271494E-3	-400.000000E-3	221.213531E-3	105.045033E-3	-400.000000E-3
84.350967E-3	5.218506E-3	11.956263E-3	-368.251371E-3	-400.000000E-3	221.235704E-3	105.070400E-3	-400.000000E-3
84.351063E-3	5.213976E-3	11.972809E-3	-368.220329E-3	-400.000000E-3	221.266794E-3	105.101919E-3	-400.000000E-3
84.352684E-3	5.221415E-3	11.986923E-3	-368.212366E-3	-400.000000E-3	221.271610E-3	105.107880E-3	-400.000000E-3
84.353161E-3	5.221605E-3	12.000751E-3	-368.199587E-3	-400.000000E-3	221.281052E-3	105.116415E-3	-400.000000E-3
84.350777E-3	5.211782E-3	12.012148E-3	-368.197966E-3	-400.000000E-3	221.278858E-3	105.113888E-3	-400.000000E-3
84.348154E-3	5.192232E-3	12.027740E-3	-368.185854E-3	-400.000000E-3	221.294308E-3	105.126810E-3	-400.000000E-3
84.347677E-3	5.170965E-3	12.012053E-3	-368.173218E-3	-400.000000E-3	221.306992E-3	105.135918E-3	-400.000000E-3
84.343815E-3	5.173588E-3	12.011671E-3	-368.158674E-3	-400.000000E-3	221.312809E-3	105.140591E-3	-400.000000E-3
84.340286E-3	5.176258E-3	12.013865E-3	-368.176365E-3	-400.000000E-3	221.284533E-3	105.114985E-3	-400.000000E-3
84.340525E-3	5.170774E-3	12.005711E-3	-368.174124E-3	-400.000000E-3	221.284580E-3	105.110455E-3	-400.000000E-3
84.341812E-3	5.161238E-3	11.962795E-3	-368.147945E-3	-400.000000E-3	221.307325E-3	105.130005E-3	-400.000000E-3
84.342241E-3	5.158567E-3	11.937666E-3	-368.177128E-3	-400.000000E-3	221.273565E-3	105.098629E-3	-400.000000E-3
84.343004E-3	5.165863E-3	11.936665E-3	-368.174553E-3	-400.000000E-3	221.272516E-3	105.100584E-3	-400.000000E-3
84.346294E-3	5.181885E-3	11.928606E-3	-368.165731E-3	-400.000000E-3	221.277952E-3	105.105066E-3	-400.000000E-3
84.349012E-3	5.208826E-3	11.928511E-3	-368.199158E-3	-400.000000E-3	221.244907E-3	105.069447E-3	-400.000000E-3
84.348631E-3	5.187464E-3	11.896324E-3	-368.257713E-3	-400.000000E-3	221.175528E-3	105.005455E-3	-400.000000E-3
84.349775E-3	5.156565E-3	11.859131E-3	-368.255901E-3	-400.000000E-3	221.165609E-3	105.000401E-3	-400.000000E-3
84.350824E-3	5.171013E-3	11.845779E-3	-368.196678E-3	-400.000000E-3	221.223879E-3	105.057287E-3	-400.000000E-3
84.348917E-3	5.172443E-3	11.820745E-3	-368.205547E-3	-400.000000E-3	221.217203E-3	105.045319E-3	-400.000000E-3
84.344912E-3	5.173397E-3	11.810112E-3	-368.238926E-3	-400.000000E-3	221.183014E-3	105.009031E-3	-400.000000E-3
84.342480E-3	5.160570E-3	11.790466E-3	-368.228292E-3	-400.000000E-3	221.192265E-3	105.012703E-3	-400.000000E-3
84.340954E-3	5.159807E-3	11.764908E-3	-368.232918E-3	-400.000000E-3	221.189117E-3	105.007839E-3	-400.000000E-3
84.337807E-3	5.154276E-3	11.747646E-3	-368.248796E-3	-400.000000E-3	221.171141E-3	104.993439E-3	-400.000000E-3
84.335995E-3	5.136585E-3	11.770344E-3	-368.239546E-3	-400.000000E-3	221.175575E-3	105.004406E-3	-400.000000E-3
84.332561E-3	5.133438E-3	11.775827E-3	-368.223906E-3	-400.000000E-3	221.188259E-3	105.021524E-3	-400.000000E-3
84.328842E-3	5.146360E-3	11.761475E-3	-368.199825E-3	-400.000000E-3	221.211004E-3	105.042696E-3	-400.000000E-3
84.328318E-3	5.140638E-3	11.756659E-3	-368.187046E-3	-400.000000E-3	221.222830E-3	105.049324E-3	-400.000000E-3
84.329653E-3	5.130243E-3	11.765671E-3	-368.174601E-3	-400.000000E-3	221.238518E-3	105.059814E-3	-400.000000E-3
84.328604E-3	5.123663E-3	11.757183E-3	-368.181276E-3	-400.000000E-3	221.234274E-3	105.055761E-3	-400.000000E-3
84.325743E-3	5.119133E-3	11.745644E-3	-368.201065E-3	-400.000000E-3	221.220636E-3	105.041313E-3	-400.000000E-3
84.325409E-3	5.095196E-3	11.716890E-3	-368.204927E-3	-400.000000E-3	221.226645E-3	105.044937E-3	-400.000000E-3
84.326935E-3	5.104160E-3	11.698818E-3	-368.205261E-3	-400.000000E-3	221.237707E-3	105.052996E-3	-400.000000E-3
84.326410E-3	5.116892E-3	11.704397E-3	-368.209362E-3	-400.000000E-3	221.238470E-3	105.048609E-3	-400.000000E-3
84.328079E-3	5.114460E-3	11.704111E-3	-368.209028E-3	-400.000000E-3	221.236467E-3	105.049276E-3	-400.000000E-3
84.329510E-3	5.118895E-3	11.689377E-3	-368.195534E-3	-400.000000E-3	221.238327E-3	105.059624E-3	-400.000000E-3
84.327984E-3	5.122280E-3	11.684561E-3	-368.220186E-3	-400.000000E-3	221.200657E-3	105.030203E-3	-400.000000E-3
84.323549E-3	5.113935E-3	11.676502E-3	-368.246031E-3	-400.000000E-3	221.171570E-3	105.004215E-3	-400.000000E-3
84.319019E-3	5.116367E-3	11.674261E-3	-368.266535E-3	-400.000000E-3	221.151161E-3	104.985714E-3	-400.000000E-3
84.314299E-3	5.115223E-3	11.681366E-3	-368.259716E-3	-400.000000E-3	221.154881E-3	104.995680E-3	-400.000000E-3
84.310627E-3	5.112696E-3	11.682701E-3	-368.236399E-3	-400.000000E-3	221.175146E-3	105.023241E-3	-400.000000E-3
84.308290E-3	5.119991E-3	11.697197E-3	-368.201303E-3	-400.000000E-3	221.211338E-3	105.059147E-3	-400.000000E-3
84.302950E-3	5.117655E-3	11.701155E-3	-368.198729E-3	-400.000000E-3	221.207666E-3	105.054188E-3	-400.000000E-3
84.298420E-3	5.108070E-3	11.682796E-3	-368.211317E-3	-400.000000E-3	221.178722E-3	105.029345E-3	-400.000000E-3
84.296417E-3	5.128479E-3	11.679649E-3	-368.228054E-3	-400.000000E-3	221.153450E-3	105.004740E-3	-400.000000E-3
84.293985E-3	5.129290E-3	11.671114E-3	-368.231010E-3	-400.000000E-3	221.141815E-3	104.994249E-3	-400.000000E-3
84.291029E-3	5.122185E-3	11.622334E-3	-368.271637E-3	-400.000000E-3	221.098137E-3	104.946661E-3	-400.000000E-3
84.289980E-3	5.134296E-3	11.581993E-3	-368.301344E-3	-400.000000E-3	221.064377E-3	104.907227E-3	-400.000000E-3
84.290266E-3	5.138111E-3	11.520958E-3	-368.339872E-3	-400.000000E-3	221.011209E-3	104.855013E-3	-400.000000E-3
84.289074E-3	5.143309E-3	11.470699E-3	-368.347979E-3	-400.000000E-3	220.991182E-3	104.839468E-3	-400.000000E-3
84.285116E-3	5.156898E-3	11.435986E-3	-368.385267E-3	-400.000000E-3	220.943451E-3	104.795933E-3	-400.000000E-3
84.281588E-3	5.156612E-3	11.371708E-3	-368.421268E-3	-400.000000E-3	220.898724E-3	104.745579E-3	-400.000000E-3
84.280062E-3	5.204201E-3	11.329269E-3	-368.443394E-3	-400.000000E-3	220.873451E-3	104.714775E-3	-400.000000E-3
84.276724E-3	5.221081E-3	11.342907E-3	-368.466616E-3	-400.000000E-3	220.841932E-3	104.682398E-3	-400.000000E-3
84.273386E-3	5.224276E-3	11.420727E-3	-368.443394E-3	-400.000000E-3	220.856810E-3	104.694223E-3	-400.000000E-3
84.269905E-3	5.259085E-3	11.542606E-3	-368.401003E-3	-400.000000E-3	220.889568E-3	104.725647E-3	-400.000000E-3
84.270334E-3	5.255604E-3	11.724997E-3	-368.313026E-3	-400.000000E-3	220.965958E-3	104.800129E-3	-400.000000E-3
84.273291E-3	5.268383E-3	11.985397E-3	-368.186808E-3	-400.000000E-3	221.080828E-3	104.913902E-3	-400.000000E-3
84.271574E-3	5.301952E-3	12.279797E-3	-368.045902E-3	-400.000000E-3	221.212482E-3	105.041456E-3	-400.000000E-3
84.270000E-3	5.317879E-3	12.564373E-3	-367.832279E-3	-400.000000E-3	221.419287E-3	105.243158E-3	-400.000000E-3
84.269953E-3	5.327749E-3	12.794256E-3	-367.669392E-3	-400.000000E-3	221.574450E-3	105.395746E-3	-400.000000E-3
84.272051E-3	5.339289E-3	12.964916E-3	-367.570972E-3	-400.000000E-3	221.671247E-3	105.486584E-3	-400.000000E-3
84.273624E-3	5.325270E-3	13.097382E-3	-367.476416E-3	-400.000000E-3	221.758175E-3	105.571699E-3	-400.000000E-3
84.274054E-3	5.274773E-3	13.069677E-3	-367.418766E-3	-400.000000E-3	221.798992E-3	105.609369E-3	-400.000000E-3
84.271765E-3	5.189133E-3	12.846088E-3	-367.445230E-3	-400.000000E-3	221.760845E-3	105.570698E-3	-400.000000E-3
84.272575E-3	5.085135E-3	12.607622E-3	-367.495346E-3	-400.000000E-3	221.707010E-3	105.515623E-3	-400.000000E-3
84.272766E-3	4.993629E-3	12.415171E-3	-367.544270E-3	-400.000000E-3	221.653509E-3	105.453444E-3	-400.000000E-3
84.272766E-3	4.935646E-3	12.261057E-3	-367.594433E-3	-400.000000E-3	221.598768E-3	105.389118E-3	-400.000000E-3
84.271240E-3	4.902172E-3	12.101078E-3	-367.669582E-3	-400.000000E-3	221.520138E-3	105.305338E-3	-400.000000E-3
84.269667E-3	4.879761E-3	11.976719E-3	-367.754364E-3	-400.000000E-3	221.434832E-3	105.212164E-3	-400.000000E-3
84.269190E-3	4.911327E-3	11.920023E-3	-367.780447E-3	-400.000000E-3	221.403837E-3	105.181837E-3	-400.000000E-3
84.269953E-3	4.960060E-3	11.915827E-3	-367.763090E-3	-400.000000E-3	221.421957E-3	105.198860E-3	-400.000000E-3
84.269238E-3	5.029249E-3	11.881495E-3	-367.758942E-3	-400.000000E-3	221.425247E-3	105.199766E-3	-400.000000E-3
84.269571E-3	5.093002E-3	11.810875E-3	-367.797995E-3	-400.000000E-3	221.379948E-3	105.154943E-3	-400.000000E-3
84.269714E-3	5.134153E-3	11.726284E-3	-367.888451E-3	-400.000000E-3	221.284962E-3	105.055857E-3	-400.000000E-3
84.267998E-3	5.144548E-3	11.653900E-3	-367.951012E-3	-400.000000E-3	221.223640E-3	104.987383E-3	-400.000000E-3
84.269094E-3	5.158806E-3	11.595821E-3	-367.969990E-3	-400.000000E-3	221.207905E-3	104.967213E-3	-400.000000E-3
84.268284E-3	5.191946E-3	11.572170E-3	-368.004131E-3	-400.000000E-3	221.171713E-3	104.934025E-3	-400.000000E-3
84.270000E-3	5.192757E-3	11.564255E-3	-368.034506E-3	-400.000000E-3	221.135616E-3	104.896879E-3	-400.000000E-3
84.269238E-3	5.186033E-3	11.575842E-3	-368.031263E-3	-400.000000E-3	221.124458E-3	104.884720E-3	-400.000000E-3
84.268761E-3	5.173159E-3	11.579037E-3	-368.034220E-3	-400.000000E-3	221.109772E-3	104.870701E-3	-400.000000E-3
84.270430E-3	5.159187E-3	11.578560E-3	-368.034887E-3	-400.000000E-3	221.094942E-3	104.859304E-3	-400.000000E-3
84.271049E-3	5.150461E-3	11.573696E-3	-368.001747E-3	-400.000000E-3	221.117401E-3	104.884195E-3	-400.000000E-3
84.268475E-3	5.154657E-3	11.561823E-3	-367.992496E-3	-400.000000E-3	221.124077E-3	104.890633E-3	-400.000000E-3
84.266090E-3	5.149317E-3	11.572552E-3	-367.996073E-3	-400.000000E-3	221.115732E-3	104.878712E-3	-400.000000E-3
84.263468E-3	5.144691E-3	11.590528E-3	-367.985582E-3	-400.000000E-3	221.113396E-3	104.877281E-3	-400.000000E-3
84.258270E-3	5.154324E-3	11.648464E-3	-367.954540E-3	-400.000000E-3	221.139479E-3	104.901028E-3	-400.000000E-3
84.257936E-3	5.143595E-3	11.659622E-3	-367.947626E-3	-400.000000E-3	221.142769E-3	104.897594E-3	-400.000000E-3
84.258366E-3	5.145073E-3	11.630249E-3	-367.945290E-3	-400.000000E-3	221.140671E-3	104.888725E-3	-400.000000E-3
84.257269E-3	5.153847E-3	11.602116E-3	-367.960978E-3	-400.000000E-3	221.112728E-3	104.864693E-3	-400.000000E-3
84.255123E-3	5.158806E-3	11.598349E-3	-367.976284E-3	-400.000000E-3	221.084929E-3	104.837847E-3	-400.000000E-3
84.256315E-3	5.147934E-3	11.596584E-3	-367.976379E-3	-400.000000E-3	221.080971E-3	104.828644E-3	-400.000000E-3
84.255648E-3	5.158424E-3	11.593294E-3	-367.951488E-3	-400.000000E-3	221.099091E-3	104.845047E-3	-400.000000E-3
84.254074E-3	5.175734E-3	11.606884E-3	-367.920494E-3	-400.000000E-3	221.123791E-3	104.871559E-3	-400.000000E-3
84.254932E-3	5.170012E-3	11.631680E-3	-367.925072E-3	-400.000000E-3	221.111679E-3	104.859877E-3	-400.000000E-3
84.256124E-3	5.151415E-3	11.637735E-3	-367.928314E-3	-400.000000E-3	221.098232E-3	104.841757E-3	-400.000000E-3
84.256792E-3	5.134392E-3	11.654758E-3	-367.885160E-3	-400.000000E-3	221.134567E-3	104.873180E-3	-400.000000E-3
84.258509E-3	5.144787E-3	11.672592E-3	-367.865992E-3	-400.000000E-3	221.146965E-3	104.884195E-3	-400.000000E-3
84.260845E-3	5.156898E-3	11.699867E-3	-367.851877E-3	-400.000000E-3	221.153259E-3	104.893160E-3	-400.000000E-3
84.261703E-3	5.173731E-3	11.716366E-3	-367.824745E-3	-400.000000E-3	221.167850E-3	104.915428E-3	-400.000000E-3
84.261703E-3	5.169535E-3	11.719608E-3	-367.803574E-3	-400.000000E-3	221.178341E-3	104.934359E-3	-400.000000E-3
84.260035E-3	5.168247E-3	11.719799E-3	-367.818642E-3	-400.000000E-3	221.152258E-3	104.912376E-3	-400.000000E-3
84.257030E-3	5.166578E-3	11.703968E-3	-368.070030E-3	-400.000000E-3	220.890760E-3	104.658556E-3	-400.000000E-3
84.256077E-3	5.161572E-3	11.688995E-3	-368.106651E-3	-400.000000E-3	220.850849E-3	104.620934E-3	-400.000000E-3
84.253120E-3	5.161715E-3	11.685085E-3	-367.948580E-3	-400.000000E-3	221.004009E-3	104.771185E-3	-400.000000E-3
84.249210E-3	5.169678E-3	11.675835E-3	-367.884064E-3	-400.000000E-3	221.060419E-3	104.825735E-3	-400.000000E-3
84.245348E-3	5.178213E-3	11.675072E-3	-367.849970E-3	-400.000000E-3	221.090221E-3	104.851341E-3	-400.000000E-3
84.245491E-3	5.186129E-3	11.687088E-3	-367.797852E-3	-400.000000E-3	221.145630E-3	104.905415E-3	-400.000000E-3
84.244537E-3	5.186272E-3	11.715508E-3	-367.735815E-3	-400.000000E-3	221.205330E-3	104.963875E-3	-400.000000E-3
84.242725E-3	5.184364E-3	11.733246E-3	-367.725945E-3	-400.000000E-3	221.216393E-3	104.972506E-3	-400.000000E-3
84.243298E-3	5.196714E-3	11.757946E-3	-367.700291E-3	-400.000000E-3	221.237421E-3	104.992914E-3	-400.000000E-3
84.247160E-3	5.202532E-3	11.748791E-3	-367.699242E-3	-400.000000E-3	221.236515E-3	104.984570E-3	-400.000000E-3
84.249210E-3	5.211496E-3	11.726618E-3	-367.730761E-3	-400.000000E-3	221.203899E-3	104.953861E-3	-400.000000E-3
84.248018E-3	5.228662E-3	11.740065E-3	-367.724705E-3	-400.000000E-3	221.204329E-3	104.954052E-3	-400.000000E-3
84.246588E-3	5.241823E-3	11.764574E-3	-367.702675E-3	-400.000000E-3	221.222687E-3	104.973602E-3	-400.000000E-3
84.242773E-3	5.246115E-3	11.766624E-3	-367.687559E-3	-400.000000E-3	221.240616E-3	104.986525E-3	-400.000000E-3
84.242535E-3	5.251312E-3	11.768389E-3	-367.686081E-3	-400.000000E-3	221.241617E-3	104.985523E-3	-400.000000E-3
84.241295E-3	5.254459E-3	11.789703E-3	-367.712069E-3	-400.000000E-3	221.212101E-3	104.950237E-3	-400.000000E-3
84.243298E-3	5.262136E-3	11.807299E-3	-367.685699E-3	-400.000000E-3	221.238947E-3	104.973936E-3	-400.000000E-3
84.244394E-3	5.273342E-3	11.844587E-3	-367.689657E-3	-400.000000E-3	221.228695E-3	104.964161E-3	-400.000000E-3
84.243202E-3	5.285549E-3	11.886644E-3	-367.743587E-3	-400.000000E-3	221.163845E-3	104.902697E-3	-400.000000E-3
84.241056E-3	5.290890E-3	11.911583E-3	-367.733431E-3	-400.000000E-3	221.165323E-3	104.909945E-3	-400.000000E-3
84.239912E-3	5.307341E-3	11.904049E-3	-367.674780E-3	-400.000000E-3	221.213102E-3	104.967785E-3	-400.000000E-3
84.241676E-3	5.325603E-3	11.916637E-3	-367.630911E-3	-400.000000E-3	221.249056E-3	105.006981E-3	-400.000000E-3
84.243584E-3	5.331898E-3	11.944008E-3	-367.615843E-3	-400.000000E-3	221.261311E-3	105.018997E-3	-400.000000E-3
84.244728E-3	5.338764E-3	11.978769E-3	-367.617512E-3	-400.000000E-3	221.256018E-3	105.012131E-3	-400.000000E-3
84.242964E-3	5.343103E-3	12.013626E-3	-367.634487E-3	-400.000000E-3	221.234560E-3	104.989481E-3	-400.000000E-3
84.242249E-3	5.349684E-3	12.042284E-3	-367.673206E-3	-400.000000E-3	221.187258E-3	104.942989E-3	-400.000000E-3
84.242630E-3	5.365801E-3	12.048626E-3	-367.637300E-3	-400.000000E-3	221.222591E-3	104.971886E-3	-400.000000E-3
84.240007E-3	5.368614E-3	12.071037E-3	-367.583609E-3	-400.000000E-3	221.280384E-3	105.018520E-3	-400.000000E-3
84.237146E-3	5.375004E-3	12.093639E-3	-367.514420E-3	-400.000000E-3	221.351528E-3	105.080557E-3	-400.000000E-3
84.234190E-3	5.380630E-3	12.111712E-3	-367.466354E-3	-400.000000E-3	221.400166E-3	105.122852E-3	-400.000000E-3
84.234190E-3	5.374479E-3	12.149382E-3	-367.478371E-3	-400.000000E-3	221.388102E-3	105.110025E-3	-400.000000E-3
84.233570E-3	5.379438E-3	12.182617E-3	-367.462587E-3	-400.000000E-3	221.389723E-3	105.117702E-3	-400.000000E-3
84.233713E-3	5.375957E-3	12.196207E-3	-367.423582E-3	-400.000000E-3	221.419048E-3	105.147648E-3	-400.000000E-3
84.235954E-3	5.373096E-3	12.203598E-3	-367.384481E-3	-400.000000E-3	221.451569E-3	105.181313E-3	-400.000000E-3
84.231806E-3	5.378437E-3	12.214565E-3	-367.373276E-3	-400.000000E-3	221.461248E-3	105.190325E-3	-400.000000E-3
84.227371E-3	5.380774E-3	12.217999E-3	-367.376709E-3	-400.000000E-3	221.458721E-3	105.183983E-3	-400.000000E-3
84.226084E-3	5.378056E-3	12.221098E-3	-367.407179E-3	-400.000000E-3	221.422195E-3	105.147648E-3	-400.000000E-3
84.225893E-3	5.381298E-3	12.207603E-3	-367.412138E-3	-400.000000E-3	221.413088E-3	105.140448E-3	-400.000000E-3
84.230089E-3	5.385113E-3	12.211132E-3	-367.411947E-3	-400.000000E-3	221.414757E-3	105.138922E-3	-400.000000E-3
84.234524E-3	5.384541E-3	12.228918E-3	-367.389870E-3	-400.000000E-3	221.429825E-3	105.159044E-3	-400.000000E-3
84.236336E-3	5.382252E-3	12.213612E-3	-367.424583E-3	-400.000000E-3	221.387339E-3	105.122709E-3	-400.000000E-3
84.238291E-3	5.374336E-3	12.182522E-3	-367.420244E-3	-400.000000E-3	221.385527E-3	105.127954E-3	-400.000000E-3
84.237623E-3	5.359793E-3	12.168932E-3	-367.331982E-3	-400.000000E-3	221.468306E-3	105.210590E-3	-400.000000E-3
84.235048E-3	5.346489E-3	12.201691E-3	-367.302799E-3	-400.000000E-3	221.492434E-3	105.231190E-3	-400.000000E-3
84.237337E-3	5.346107E-3	12.262440E-3	-367.300367E-3	-400.000000E-3	221.487522E-3	105.224991E-3	-400.000000E-3
84.239721E-3	5.345249E-3	12.286615E-3	-367.356730E-3	-400.000000E-3	221.421671E-3	105.159473E-3	-400.000000E-3
84.238958E-3	5.340195E-3	12.270641E-3	-367.398405E-3	-400.000000E-3	221.369076E-3	105.108881E-3	-400.000000E-3
84.238052E-3	5.334568E-3	12.262106E-3	-367.445230E-3	-400.000000E-3	221.315002E-3	105.053949E-3	-400.000000E-3
84.239292E-3	5.336857E-3	12.222910E-3	-367.413616E-3	-400.000000E-3	221.343946E-3	105.080748E-3	-400.000000E-3
84.239626E-3	5.306673E-3	12.162876E-3	-367.254114E-3	-400.000000E-3	221.498537E-3	105.236912E-3	-400.000000E-3
84.239769E-3	5.289030E-3	12.152338E-3	-367.241478E-3	-400.000000E-3	221.505499E-3	105.250835E-3	-400.000000E-3
84.240675E-3	5.318213E-3	12.207699E-3	-367.384577E-3	-400.000000E-3	221.361065E-3	105.113459E-3	-400.000000E-3
84.240007E-3	5.319881E-3	12.199402E-3	-367.367601E-3	-400.000000E-3	221.374607E-3	105.128431E-3	-400.000000E-3
84.242773E-3	5.316401E-3	12.142134E-3	-367.300367E-3	-400.000000E-3	221.442318E-3	105.198097E-3	-400.000000E-3
84.244251E-3	5.319166E-3	12.027931E-3	-367.324591E-3	-400.000000E-3	221.421194E-3	105.172443E-3	-400.000000E-3
84.244108E-3	5.321407E-3	12.007189E-3	-367.299795E-3	-400.000000E-3	221.444607E-3	105.191612E-3	-400.000000E-3
84.240580E-3	5.322838E-3	12.190962E-3	-367.319345E-3	-400.000000E-3	221.427727E-3	105.172825E-3	-400.000000E-3
84.239674E-3	5.320692E-3	12.332487E-3	-367.373610E-3	-400.000000E-3	221.373701E-3	105.118418E-3	-400.000000E-3
84.239388E-3	5.319643E-3	12.259960E-3	-367.337132E-3	-400.000000E-3	221.404123E-3	105.150652E-3	-400.000000E-3
84.240007E-3	5.312109E-3	12.218761E-3	-367.234516E-3	-400.000000E-3	221.505547E-3	105.251265E-3	-400.000000E-3
84.237719E-3	5.311203E-3	12.175131E-3	-367.208481E-3	-400.000000E-3	221.528864E-3	105.271769E-3	-400.000000E-3
84.233522E-3	5.316305E-3	12.173510E-3	-367.214918E-3	-400.000000E-3	221.522331E-3	105.265045E-3	-400.000000E-3
84.231377E-3	5.299091E-3	12.159634E-3	-367.202950E-3	-400.000000E-3	221.533346E-3	105.277109E-3	-400.000000E-3
84.233093E-3	5.293751E-3	12.148905E-3	-367.282248E-3	-400.000000E-3	221.451426E-3	105.188990E-3	-400.000000E-3
84.233570E-3	5.284405E-3	12.095642E-3	-367.427921E-3	-400.000000E-3	221.303320E-3	105.029058E-3	-400.000000E-3
84.232330E-3	5.275345E-3	12.034035E-3	-367.455769E-3	-400.000000E-3	221.274519E-3	104.992247E-3	-400.000000E-3
84.234047E-3	5.273771E-3	12.042904E-3	-367.276764E-3	-400.000000E-3	221.453905E-3	105.167580E-3	-400.000000E-3
84.237003E-3	5.265045E-3	12.110281E-3	-367.229462E-3	-400.000000E-3	221.500111E-3	105.211973E-3	-400.000000E-3
84.238672E-3	5.277920E-3	12.168598E-3	-367.240381E-3	-400.000000E-3	221.485043E-3	105.194235E-3	-400.000000E-3
84.236336E-3	5.284977E-3	12.169313E-3	-367.146778E-3	-400.000000E-3	221.570539E-3	105.274391E-3	-400.000000E-3
84.234285E-3	5.280924E-3	12.110090E-3	-367.130947E-3	-400.000000E-3	221.585989E-3	105.286169E-3	-400.000000E-3
84.232855E-3	5.292559E-3	12.051916E-3	-367.259502E-3	-400.000000E-3	221.460247E-3	105.155993E-3	-400.000000E-3
84.232378E-3	5.283356E-3	12.055826E-3	-367.375660E-3	-400.000000E-3	221.329594E-3	105.027628E-3	-400.000000E-3
84.230566E-3	5.282307E-3	12.083292E-3	-367.408657E-3	-400.000000E-3	221.282244E-3	104.990196E-3	-400.000000E-3
84.230137E-3	5.275154E-3	12.090635E-3	-367.286158E-3	-400.000000E-3	221.399021E-3	105.111980E-3	-400.000000E-3
84.231472E-3	5.281544E-3	12.110376E-3	-367.110252E-3	-400.000000E-3	221.573639E-3	105.282021E-3	-400.000000E-3
84.231806E-3	5.268383E-3	12.116003E-3	-367.023754E-3	-400.000000E-3	221.656561E-3	105.364656E-3	-400.000000E-3
84.233809E-3	5.267525E-3	12.095737E-3	-367.011356E-3	-400.000000E-3	221.667957E-3	105.376863E-3	-400.000000E-3
84.233713E-3	5.260611E-3	12.057686E-3	-367.067671E-3	-400.000000E-3	221.609402E-3	105.320597E-3	-400.000000E-3
84.235048E-3	5.252695E-3	12.068462E-3	-367.129898E-3	-400.000000E-3	221.535969E-3	105.256653E-3	-400.000000E-3
84.235954E-3	5.237627E-3	12.071562E-3	-367.122364E-3	-400.000000E-3	221.534538E-3	105.261850E-3	-400.000000E-3
84.238529E-3	5.249071E-3	12.044096E-3	-367.087793E-3	-400.000000E-3	221.561146E-3	105.292273E-3	-400.000000E-3
84.239960E-3	5.267048E-3	12.058163E-3	-367.079067E-3	-400.000000E-3	221.564722E-3	105.289888E-3	-400.000000E-3
84.239674E-3	5.271530E-3	12.085342E-3	-367.106867E-3	-400.000000E-3	221.529150E-3	105.246019E-3	-400.000000E-3
84.235430E-3	5.259323E-3	12.112188E-3	-367.160988E-3	-400.000000E-3	221.465683E-3	105.179119E-3	-400.000000E-3
84.233713E-3	5.252314E-3	12.117195E-3	-367.199755E-3	-400.000000E-3	221.419477E-3	105.130148E-3	-400.000000E-3
84.236336E-3	5.233288E-3	12.107420E-3	-367.137337E-3	-400.000000E-3	221.478128E-3	105.188370E-3	-400.000000E-3
84.237146E-3	5.227757E-3	12.093496E-3	-367.011833E-3	-400.000000E-3	221.599007E-3	105.307674E-3	-400.000000E-3
84.236956E-3	5.227470E-3	12.072659E-3	-366.975212E-3	-400.000000E-3	221.627665E-3	105.337524E-3	-400.000000E-3
84.237385E-3	5.224133E-3	12.068558E-3	-366.971588E-3	-400.000000E-3	221.625471E-3	105.335140E-3	-400.000000E-3
84.237289E-3	5.214357E-3	12.107563E-3	-367.018843E-3	-400.000000E-3	221.577787E-3	105.289078E-3	-400.000000E-3
84.236765E-3	5.214643E-3	12.152481E-3	-367.081261E-3	-400.000000E-3	221.510172E-3	105.221081E-3	-400.000000E-3
84.235001E-3	5.206966E-3	12.150145E-3	-367.012835E-3	-400.000000E-3	221.575260E-3	105.284166E-3	-400.000000E-3
84.233713E-3	5.202723E-3	12.092161E-3	-366.960382E-3	-400.000000E-3	221.626616E-3	105.333519E-3	-400.000000E-3
84.229946E-3	5.192900E-3	12.035036E-3	-366.979027E-3	-400.000000E-3	221.604729E-3	105.315924E-3	-400.000000E-3
84.228706E-3	5.192327E-3	11.979723E-3	-366.916943E-3	-400.000000E-3	221.661663E-3	105.375719E-3	-400.000000E-3
84.232616E-3	5.214119E-3	11.955786E-3	-366.875505E-3	-400.000000E-3	221.706104E-3	105.415535E-3	-400.000000E-3
84.234142E-3	5.217457E-3	11.944199E-3	-366.916752E-3	-400.000000E-3	221.670294E-3	105.382586E-3	-400.000000E-3
84.232855E-3	5.206299E-3	11.956310E-3	-366.976023E-3	-400.000000E-3	221.612167E-3	105.324411E-3	-400.000000E-3
84.234285E-3	5.209255E-3	12.014389E-3	-366.973925E-3	-400.000000E-3	221.602964E-3	105.310822E-3	-400.000000E-3
84.234047E-3	5.216742E-3	12.030315E-3	-366.962385E-3	-400.000000E-3	221.598768E-3	105.311346E-3	-400.000000E-3
84.231901E-3	5.224466E-3	11.963129E-3	-366.976833E-3	-400.000000E-3	221.579790E-3	105.293274E-3	-400.000000E-3
84.233427E-3	5.221415E-3	11.903477E-3	-366.998482E-3	-400.000000E-3	221.566963E-3	105.280542E-3	-400.000000E-3
84.232187E-3	5.218840E-3	11.903000E-3	-366.986609E-3	-400.000000E-3	221.581268E-3	105.296326E-3	-400.000000E-3
84.230328E-3	5.211067E-3	11.919928E-3	-366.978455E-3	-400.000000E-3	221.588707E-3	105.303812E-3	-400.000000E-3
84.231234E-3	5.203199E-3	11.912584E-3	-367.025805E-3	-400.000000E-3	221.543837E-3	105.257559E-3	-400.000000E-3
84.232235E-3	5.192232E-3	11.854982E-3	-366.998529E-3	-400.000000E-3	221.567583E-3	105.279875E-3	-400.000000E-3
84.232616E-3	5.190420E-3	11.810923E-3	-366.948938E-3	-400.000000E-3	221.619081E-3	105.330658E-3	-400.000000E-3
84.234047E-3	5.186939E-3	11.812592E-3	-366.971207E-3	-400.000000E-3	221.596289E-3	105.307150E-3	-400.000000E-3
84.235811E-3	5.182457E-3	11.827421E-3	-366.997242E-3	-400.000000E-3	221.567440E-3	105.278873E-3	-400.000000E-3
84.237576E-3	5.165386E-3	11.833715E-3	-367.018270E-3	-400.000000E-3	221.548462E-3	105.257702E-3	-400.000000E-3
84.237146E-3	5.161715E-3	11.838722E-3	-367.040205E-3	-400.000000E-3	221.518135E-3	105.228901E-3	-400.000000E-3
84.236908E-3	5.163002E-3	11.799669E-3	-367.049026E-3	-400.000000E-3	221.498728E-3	105.213785E-3	-400.000000E-3
84.234285E-3	5.155659E-3	11.770010E-3	-367.038345E-3	-400.000000E-3	221.505594E-3	105.219364E-3	-400.000000E-3
84.236956E-3	5.150843E-3	11.764956E-3	-367.068100E-3	-400.000000E-3	221.470976E-3	105.182076E-3	-400.000000E-3
84.240007E-3	5.143070E-3	11.726189E-3	-367.036057E-3	-400.000000E-3	221.500158E-3	105.204868E-3	-400.000000E-3
84.240341E-3	5.132818E-3	11.695194E-3	-367.009354E-3	-400.000000E-3	221.528912E-3	105.225563E-3	-400.000000E-3
84.241629E-3	5.139971E-3	11.687899E-3	-367.024612E-3	-400.000000E-3	221.512222E-3	105.206299E-3	-400.000000E-3
84.244680E-3	5.154562E-3	11.704206E-3	-367.102432E-3	-400.000000E-3	221.427441E-3	105.121422E-3	-400.000000E-3
84.251547E-3	5.158710E-3	11.725760E-3	-367.102194E-3	-400.000000E-3	221.423006E-3	105.116749E-3	-400.000000E-3
84.258032E-3	5.168724E-3	11.751461E-3	-366.978264E-3	-400.000000E-3	221.544933E-3	105.234432E-3	-400.000000E-3
84.261084E-3	5.168724E-3	11.758947E-3	-366.927195E-3	-400.000000E-3	221.596003E-3	105.287933E-3	-400.000000E-3
84.263039E-3	5.163574E-3	11.760759E-3	-366.932487E-3	-400.000000E-3	221.589947E-3	105.286598E-3	-400.000000E-3
84.265089E-3	5.163336E-3	11.733294E-3	-366.917896E-3	-400.000000E-3	221.604395E-3	105.306625E-3	-400.000000E-3
84.268141E-3	5.171204E-3	11.757565E-3	-366.913271E-3	-400.000000E-3	221.605444E-3	105.314302E-3	-400.000000E-3
84.273291E-3	5.166912E-3	11.772346E-3	-366.956997E-3	-400.000000E-3	221.566391E-3	105.276442E-3	-400.000000E-3
84.277868E-3	5.163670E-3	11.752844E-3	-366.990376E-3	-400.000000E-3	221.534061E-3	105.244875E-3	-400.000000E-3
84.275913E-3	5.179405E-3	11.734152E-3	-366.986036E-3	-400.000000E-3	221.539545E-3	105.246258E-3	-400.000000E-3
84.274340E-3	5.190659E-3	11.707067E-3	-366.973734E-3	-400.000000E-3	221.550846E-3	105.258465E-3	-400.000000E-3
84.274006E-3	5.186081E-3	11.650419E-3	-366.990709E-3	-400.000000E-3	221.536207E-3	105.243587E-3	-400.000000E-3
84.275007E-3	5.183649E-3	11.586475E-3	-367.074537E-3	-400.000000E-3	221.452856E-3	105.154419E-3	-400.000000E-3
84.274483E-3	5.187178E-3	11.528349E-3	-367.125082E-3	-400.000000E-3	221.397686E-3	105.094814E-3	-400.000000E-3
84.271955E-3	5.186558E-3	11.461878E-3	-367.156696E-3	-400.000000E-3	221.367884E-3	105.061960E-3	-400.000000E-3
84.267092E-3	5.204773E-3	11.417246E-3	-367.234993E-3	-400.000000E-3	221.281099E-3	104.974651E-3	-400.000000E-3
84.263039E-3	5.240774E-3	11.354923E-3	-367.262220E-3	-400.000000E-3	221.241617E-3	104.936218E-3	-400.000000E-3
84.262037E-3	5.268049E-3	11.315966E-3	-367.181444E-3	-400.000000E-3	221.312761E-3	105.007696E-3	-400.000000E-3
84.263849E-3	5.286837E-3	11.391115E-3	-367.100000E-3	-400.000000E-3	221.383619E-3	105.080509E-3	-400.000000E-3
84.265184E-3	5.311584E-3	11.543703E-3	-367.061472E-3	-400.000000E-3	221.406412E-3	105.111599E-3	-400.000000E-3
84.266090E-3	5.324745E-3	11.760521E-3	-366.971922E-3	-400.000000E-3	221.484137E-3	105.191422E-3	-400.000000E-3
84.265327E-3	5.356503E-3	12.034845E-3	-366.837072E-3	-400.000000E-3	221.614695E-3	105.316257E-3	-400.000000E-3
84.264088E-3	5.361986E-3	12.287140E-3	-366.687012E-3	-400.000000E-3	221.759367E-3	105.456066E-3	-400.000000E-3
84.263229E-3	5.383348E-3	12.557983E-3	-366.543007E-3	-400.000000E-3	221.896219E-3	105.591106E-3	-400.000000E-3
84.261560E-3	5.405474E-3	12.783623E-3	-366.439915E-3	-400.000000E-3	221.995544E-3	105.689478E-3	-400.000000E-3
84.257174E-3	5.405521E-3	12.954855E-3	-366.393042E-3	-400.000000E-3	222.034121E-3	105.733442E-3	-400.000000E-3
84.256077E-3	5.380726E-3	13.066387E-3	-366.318512E-3	-400.000000E-3	222.099590E-3	105.806017E-3	-400.000000E-3
84.255123E-3	5.328083E-3	13.044310E-3	-366.249752E-3	-400.000000E-3	222.158241E-3	105.860567E-3	-400.000000E-3
84.254313E-3	5.230951E-3	12.853479E-3	-366.273499E-3	-400.000000E-3	222.130156E-3	105.826855E-3	-400.000000E-3
84.253263E-3	5.126572E-3	12.582493E-3	-366.361237E-3	-400.000000E-3	222.030449E-3	105.729485E-3	-400.000000E-3
84.252644E-3	5.006266E-3	12.346697E-3	-366.396999E-3	-400.000000E-3	221.987677E-3	105.683708E-3	-400.000000E-3
84.251070E-3	4.933405E-3	12.197447E-3	-366.434336E-3	-400.000000E-3	221.950912E-3	105.643606E-3	-400.000000E-3
84.252501E-3	4.898262E-3	12.051630E-3	-366.465425E-3	-400.000000E-3	221.920443E-3	105.611944E-3	-400.000000E-3
84.253931E-3	4.936075E-3	11.955786E-3	-366.465425E-3	-400.000000E-3	221.918011E-3	105.605459E-3	-400.000000E-3
84.254408E-3	4.992962E-3	11.905766E-3	-366.485929E-3	-400.000000E-3	221.894789E-3	105.580473E-3	-400.000000E-3
84.256792E-3	5.034113E-3	11.895752E-3	-366.485262E-3	-400.000000E-3	221.896791E-3	105.579042E-3	-400.000000E-3
84.258699E-3	5.070257E-3	11.843634E-3	-366.536999E-3	-400.000000E-3	221.846724E-3	105.527830E-3	-400.000000E-3
84.257412E-3	5.125904E-3	11.789513E-3	-366.654444E-3	-400.000000E-3	221.722460E-3	105.409145E-3	-400.000000E-3
84.254885E-3	5.165434E-3	11.727476E-3	-366.771984E-3	-400.000000E-3	221.600676E-3	105.292225E-3	-400.000000E-3
84.253502E-3	5.200291E-3	11.682701E-3	-366.797018E-3	-400.000000E-3	221.568012E-3	105.267668E-3	-400.000000E-3
84.254789E-3	5.199480E-3	11.634731E-3	-366.728735E-3	-400.000000E-3	221.632099E-3	105.329752E-3	-400.000000E-3
84.256649E-3	5.197430E-3	11.612272E-3	-366.724586E-3	-400.000000E-3	221.638489E-3	105.325651E-3	-400.000000E-3
84.257507E-3	5.193853E-3	11.607933E-3	-366.757250E-3	-400.000000E-3	221.611691E-3	105.290937E-3	-400.000000E-3
84.254932E-3	5.188036E-3	11.617947E-3	-366.774321E-3	-400.000000E-3	221.599293E-3	105.273867E-3	-400.000000E-3
84.253550E-3	5.186701E-3	11.631966E-3	-366.770601E-3	-400.000000E-3	221.600246E-3	105.272913E-3	-400.000000E-3
84.251642E-3	5.187750E-3	11.618710E-3	-366.754580E-3	-400.000000E-3	221.612978E-3	105.284262E-3	-400.000000E-3
84.248018E-3	5.184507E-3	11.608458E-3	-366.765738E-3	-400.000000E-3	221.603346E-3	105.272436E-3	-400.000000E-3
84.246540E-3	5.184793E-3	11.586857E-3	-366.767073E-3	-400.000000E-3	221.608210E-3	105.267954E-3	-400.000000E-3
84.244156E-3	5.177355E-3	11.596680E-3	-366.770077E-3	-400.000000E-3	221.602345E-3	105.260086E-3	-400.000000E-3
84.242296E-3	5.197001E-3	11.627674E-3	-366.753578E-3	-400.000000E-3	221.610212E-3	105.267429E-3	-400.000000E-3
84.241581E-3	5.186415E-3	11.613989E-3	-366.750050E-3	-400.000000E-3	221.608210E-3	105.260134E-3	-400.000000E-3
84.243202E-3	5.166245E-3	11.598539E-3	-366.786480E-3	-400.000000E-3	221.569586E-3	105.217314E-3	-400.000000E-3
84.242916E-3	5.162907E-3	11.603832E-3	-366.760874E-3	-400.000000E-3	221.585417E-3	105.237770E-3	-400.000000E-3
84.239292E-3	5.166006E-3	11.601830E-3	-366.729927E-3	-400.000000E-3	221.611452E-3	105.267382E-3	-400.000000E-3
84.233904E-3	5.178165E-3	11.583471E-3	-366.716480E-3	-400.000000E-3	221.617126E-3	105.279255E-3	-400.000000E-3
84.232092E-3	5.183887E-3	11.587429E-3	-366.731930E-3	-400.000000E-3	221.597528E-3	105.263138E-3	-400.000000E-3
84.233809E-3	5.186129E-3	11.609316E-3	-366.804171E-3	-400.000000E-3	221.517849E-3	105.186367E-3	-400.000000E-3
84.234524E-3	5.192327E-3	11.646891E-3	-366.780806E-3	-400.000000E-3	221.531916E-3	105.201530E-3	-400.000000E-3
84.235144E-3	5.186558E-3	11.635494E-3	-366.707897E-3	-400.000000E-3	221.599483E-3	105.271053E-3	-400.000000E-3
84.234858E-3	5.171824E-3	11.597729E-3	-366.702509E-3	-400.000000E-3	221.603632E-3	105.274916E-3	-400.000000E-3
84.235811E-3	5.170250E-3	11.602402E-3	-366.698503E-3	-400.000000E-3	221.603155E-3	105.275583E-3	-400.000000E-3
84.238052E-3	5.184507E-3	11.630011E-3	-366.729784E-3	-400.000000E-3	221.568346E-3	105.241346E-3	-400.000000E-3
84.239054E-3	5.196905E-3	11.643600E-3	-366.709232E-3	-400.000000E-3	221.585083E-3	105.261183E-3	-400.000000E-3
84.239531E-3	5.194855E-3	11.658430E-3	-366.695738E-3	-400.000000E-3	221.601152E-3	105.281258E-3	-400.000000E-3
84.241915E-3	5.194998E-3	11.682320E-3	-366.731453E-3	-400.000000E-3	221.568775E-3	105.251265E-3	-400.000000E-3
84.243965E-3	5.201960E-3	11.716413E-3	-366.864729E-3	-400.000000E-3	221.431303E-3	105.107546E-3	-400.000000E-3
84.243584E-3	5.203056E-3	11.739206E-3	-366.951990E-3	-400.000000E-3	221.341991E-3	105.009651E-3	-400.000000E-3
84.241009E-3	5.205679E-3	11.748505E-3	-366.951370E-3	-400.000000E-3	221.330404E-3	104.997826E-3	-400.000000E-3
84.239769E-3	5.207157E-3	11.750507E-3	-366.866875E-3	-400.000000E-3	221.409178E-3	105.072069E-3	-400.000000E-3
84.236336E-3	5.203581E-3	11.753464E-3	-366.812086E-3	-400.000000E-3	221.463633E-3	105.119896E-3	-400.000000E-3
84.237146E-3	5.208635E-3	11.760473E-3	-366.783953E-3	-400.000000E-3	221.478653E-3	105.137396E-3	-400.000000E-3
84.239483E-3	5.201817E-3	11.754417E-3	-366.761637E-3	-400.000000E-3	221.490669E-3	105.153227E-3	-400.000000E-3
84.238911E-3	5.203629E-3	11.747265E-3	-366.756010E-3	-400.000000E-3	221.495819E-3	105.156946E-3	-400.000000E-3
84.238243E-3	5.208683E-3	11.748600E-3	-366.749430E-3	-400.000000E-3	221.502447E-3	105.164194E-3	-400.000000E-3
84.236765E-3	5.211782E-3	11.740303E-3	-366.732740E-3	-400.000000E-3	221.511078E-3	105.177546E-3	-400.000000E-3
84.235716E-3	5.213594E-3	11.720991E-3	-366.747093E-3	-400.000000E-3	221.492338E-3	105.158281E-3	-400.000000E-3
84.231901E-3	5.220604E-3	11.730289E-3	-366.786528E-3	-400.000000E-3	221.454287E-3	105.113792E-3	-400.000000E-3
84.224653E-3	5.232048E-3	11.766434E-3	-366.804314E-3	-400.000000E-3	221.431828E-3	105.084991E-3	-400.000000E-3
84.219265E-3	5.243731E-3	11.801147E-3	-366.792583E-3	-400.000000E-3	221.431160E-3	105.079269E-3	-400.000000E-3
84.216261E-3	5.251217E-3	11.819983E-3	-366.758394E-3	-400.000000E-3	221.449423E-3	105.093908E-3	-400.000000E-3
84.214401E-3	5.267429E-3	11.818075E-3	-366.743660E-3	-400.000000E-3	221.450615E-3	105.099630E-3	-400.000000E-3
84.210491E-3	5.280399E-3	11.828566E-3	-366.699457E-3	-400.000000E-3	221.490765E-3	105.141068E-3	-400.000000E-3
84.209681E-3	5.293798E-3	11.846828E-3	-366.690922E-3	-400.000000E-3	221.497726E-3	105.150557E-3	-400.000000E-3
84.210443E-3	5.282927E-3	11.858273E-3	-366.682816E-3	-400.000000E-3	221.503496E-3	105.155277E-3	-400.000000E-3
84.212637E-3	5.281496E-3	11.873531E-3	-366.689730E-3	-400.000000E-3	221.494675E-3	105.139303E-3	-400.000000E-3
84.214401E-3	5.297804E-3	11.887407E-3	-366.673565E-3	-400.000000E-3	221.510792E-3	105.147076E-3	-400.000000E-3
84.215832E-3	5.312347E-3	11.898851E-3	-366.664219E-3	-400.000000E-3	221.519375E-3	105.157757E-3	-400.000000E-3
84.215164E-3	5.324411E-3	11.902094E-3	-366.659021E-3	-400.000000E-3	221.523809E-3	105.161572E-3	-400.000000E-3
84.212637E-3	5.329370E-3	11.901379E-3	-366.661978E-3	-400.000000E-3	221.517706E-3	105.155611E-3	-400.000000E-3
84.209728E-3	5.333328E-3	11.915874E-3	-366.645813E-3	-400.000000E-3	221.525049E-3	105.159521E-3	-400.000000E-3
84.208679E-3	5.329657E-3	11.937094E-3	-366.619682E-3	-400.000000E-3	221.552992E-3	105.183506E-3	-400.000000E-3
84.208536E-3	5.331707E-3	11.971426E-3	-366.633463E-3	-400.000000E-3	221.541214E-3	105.172634E-3	-400.000000E-3
84.208870E-3	5.350924E-3	11.989498E-3	-366.631222E-3	-400.000000E-3	221.537495E-3	105.170250E-3	-400.000000E-3
84.208393E-3	5.371284E-3	11.996794E-3	-366.593075E-3	-400.000000E-3	221.572113E-3	105.200434E-3	-400.000000E-3
84.208155E-3	5.388689E-3	12.012339E-3	-366.555309E-3	-400.000000E-3	221.605349E-3	105.233145E-3	-400.000000E-3
84.210968E-3	5.387211E-3	12.023687E-3	-366.527367E-3	-400.000000E-3	221.628618E-3	105.260372E-3	-400.000000E-3
84.214020E-3	5.385780E-3	12.028599E-3	-366.510630E-3	-400.000000E-3	221.638155E-3	105.278301E-3	-400.000000E-3
84.213734E-3	5.376863E-3	12.031221E-3	-366.473007E-3	-400.000000E-3	221.669865E-3	105.314732E-3	-400.000000E-3
84.211874E-3	5.373716E-3	12.073135E-3	-366.418409E-3	-400.000000E-3	221.722221E-3	105.365944E-3	-400.000000E-3
84.209538E-3	5.377483E-3	12.086105E-3	-366.376019E-3	-400.000000E-3	221.762085E-3	105.399990E-3	-400.000000E-3
84.204626E-3	5.383444E-3	12.046194E-3	-366.366148E-3	-400.000000E-3	221.767569E-3	105.404663E-3	-400.000000E-3
84.201241E-3	5.377436E-3	12.048435E-3	-366.346550E-3	-400.000000E-3	221.786880E-3	105.417871E-3	-400.000000E-3
84.200335E-3	5.376577E-3	12.102270E-3	-366.325712E-3	-400.000000E-3	221.808529E-3	105.434084E-3	-400.000000E-3
84.198189E-3	5.385590E-3	12.114382E-3	-366.361904E-3	-400.000000E-3	221.772528E-3	105.393600E-3	-400.000000E-3
84.196711E-3	5.371332E-3	12.095547E-3	-366.346550E-3	-400.000000E-3	221.794462E-3	105.406666E-3	-400.000000E-3
84.198141E-3	5.361700E-3	12.087679E-3	-366.286325E-3	-400.000000E-3	221.861839E-3	105.465698E-3	-400.000000E-3
84.198904E-3	5.367565E-3	12.102604E-3	-366.254091E-3	-400.000000E-3	221.903563E-3	105.495691E-3	-400.000000E-3
84.199858E-3	5.376577E-3	12.140703E-3	-366.278219E-3	-400.000000E-3	221.881771E-3	105.459738E-3	-400.000000E-3
84.199762E-3	5.375671E-3	12.183619E-3	-366.289186E-3	-400.000000E-3	221.876574E-3	105.444860E-3	-400.000000E-3
84.199476E-3	5.365515E-3	12.179565E-3	-366.247559E-3	-400.000000E-3	221.918821E-3	105.483818E-3	-400.000000E-3
84.199858E-3	5.364418E-3	12.184381E-3	-366.166925E-3	-400.000000E-3	221.992779E-3	105.560303E-3	-400.000000E-3
84.201050E-3	5.342913E-3	12.191343E-3	-366.153812E-3	-400.000000E-3	222.002316E-3	105.569267E-3	-400.000000E-3
84.202433E-3	5.327368E-3	12.206221E-3	-366.173506E-3	-400.000000E-3	221.980286E-3	105.543137E-3	-400.000000E-3
84.204578E-3	5.325651E-3	12.213421E-3	-366.177988E-3	-400.000000E-3	221.977758E-3	105.536175E-3	-400.000000E-3
84.207010E-3	5.319643E-3	12.175512E-3	-366.176271E-3	-400.000000E-3	221.987581E-3	105.538082E-3	-400.000000E-3
84.207201E-3	5.318451E-3	12.154531E-3	-366.163397E-3	-400.000000E-3	222.013187E-3	105.559015E-3	-400.000000E-3
84.207439E-3	5.313158E-3	12.147141E-3	-366.161442E-3	-400.000000E-3	222.021294E-3	105.563116E-3	-400.000000E-3
84.204435E-3	5.309248E-3	12.136030E-3	-366.169024E-3	-400.000000E-3	222.010994E-3	105.555725E-3	-400.000000E-3
84.202099E-3	5.312157E-3	12.136698E-3	-366.215563E-3	-400.000000E-3	221.962976E-3	105.506992E-3	-400.000000E-3
84.199715E-3	5.306768E-3	12.132072E-3	-366.230011E-3	-400.000000E-3	221.948290E-3	105.491209E-3	-400.000000E-3
84.197521E-3	5.294657E-3	12.114334E-3	-366.239357E-3	-400.000000E-3	221.939754E-3	105.476999E-3	-400.000000E-3
84.197330E-3	5.290365E-3	12.128162E-3	-366.238213E-3	-400.000000E-3	221.945000E-3	105.474758E-3	-400.000000E-3
84.198284E-3	5.289507E-3	12.115860E-3	-366.234159E-3	-400.000000E-3	221.952581E-3	105.472803E-3	-400.000000E-3
84.198380E-3	5.277681E-3	12.084198E-3	-366.212749E-3	-400.000000E-3	221.979666E-3	105.495119E-3	-400.000000E-3
84.199715E-3	5.281544E-3	12.056255E-3	-366.163206E-3	-400.000000E-3	222.032928E-3	105.546522E-3	-400.000000E-3
84.200239E-3	5.274963E-3	12.046432E-3	-366.166925E-3	-400.000000E-3	222.031164E-3	105.539036E-3	-400.000000E-3
84.201908E-3	5.276155E-3	12.057781E-3	-366.220617E-3	-400.000000E-3	221.990395E-3	105.486393E-3	-400.000000E-3
84.201288E-3	5.279827E-3	12.051678E-3	-366.254807E-3	-400.000000E-3	221.968842E-3	105.450392E-3	-400.000000E-3
84.198236E-3	5.273628E-3	12.026787E-3	-366.244888E-3	-400.000000E-3	221.981668E-3	105.458212E-3	-400.000000E-3
84.195042E-3	5.267763E-3	12.059975E-3	-366.227674E-3	-400.000000E-3	222.002506E-3	105.479288E-3	-400.000000E-3
84.194565E-3	5.273342E-3	12.075710E-3	-366.238070E-3	-400.000000E-3	221.996593E-3	105.467606E-3	-400.000000E-3
84.192085E-3	5.268383E-3	12.022161E-3	-366.235781E-3	-400.000000E-3	221.999884E-3	105.465794E-3	-400.000000E-3
84.190845E-3	5.273056E-3	11.995602E-3	-366.236162E-3	-400.000000E-3	221.991539E-3	105.457973E-3	-400.000000E-3
84.190655E-3	5.279112E-3	12.016010E-3	-366.254473E-3	-400.000000E-3	221.965933E-3	105.432796E-3	-400.000000E-3
84.189558E-3	5.270720E-3	12.032127E-3	-366.249990E-3	-400.000000E-3	221.964502E-3	105.433273E-3	-400.000000E-3
84.187555E-3	5.258703E-3	12.006807E-3	-366.234827E-3	-400.000000E-3	221.977901E-3	105.445576E-3	-400.000000E-3
84.186792E-3	5.263138E-3	12.007761E-3	-366.217566E-3	-400.000000E-3	221.994209E-3	105.454588E-3	-400.000000E-3
84.187603E-3	5.258989E-3	11.996174E-3	-366.193724E-3	-400.000000E-3	222.016287E-3	105.473709E-3	-400.000000E-3
84.186840E-3	5.254889E-3	12.001705E-3	-366.146660E-3	-400.000000E-3	222.058105E-3	105.513000E-3	-400.000000E-3
84.183168E-3	5.255938E-3	12.006664E-3	-366.113043E-3	-400.000000E-3	222.089243E-3	105.544281E-3	-400.000000E-3
84.176302E-3	5.265617E-3	12.038898E-3	-366.075897E-3	-400.000000E-3	222.131443E-3	105.588865E-3	-400.000000E-3
84.170866E-3	5.267382E-3	12.050962E-3	-366.052246E-3	-400.000000E-3	222.157669E-3	105.619764E-3	-400.000000E-3
84.166002E-3	5.260229E-3	12.065601E-3	-366.071272E-3	-400.000000E-3	222.130251E-3	105.595589E-3	-400.000000E-3
84.161711E-3	5.243206E-3	12.037516E-3	-366.081095E-3	-400.000000E-3	222.107124E-3	105.577374E-3	-400.000000E-3
84.160376E-3	5.236101E-3	12.022686E-3	-366.070318E-3	-400.000000E-3	222.103977E-3	105.584002E-3	-400.000000E-3
84.156704E-3	5.233669E-3	12.026072E-3	-366.083622E-3	-400.000000E-3	222.087908E-3	105.566263E-3	-400.000000E-3
84.152508E-3	5.251360E-3	12.073326E-3	-366.079617E-3	-400.000000E-3	222.089911E-3	105.571079E-3	-400.000000E-3
84.146404E-3	5.264568E-3	12.073374E-3	-366.039705E-3	-400.000000E-3	222.133780E-3	105.611563E-3	-400.000000E-3
84.140587E-3	5.250311E-3	12.083483E-3	-366.027117E-3	-400.000000E-3	222.145367E-3	105.621719E-3	-400.000000E-3
84.139156E-3	5.260754E-3	12.112999E-3	-365.996170E-3	-400.000000E-3	222.171736E-3	105.648804E-3	-400.000000E-3
84.137726E-3	5.256557E-3	12.122202E-3	-365.964413E-3	-400.000000E-3	222.207022E-3	105.675793E-3	-400.000000E-3
84.137964E-3	5.241871E-3	12.115812E-3	-365.945721E-3	-400.000000E-3	222.220755E-3	105.689716E-3	-400.000000E-3
84.137154E-3	5.235004E-3	12.101698E-3	-365.947533E-3	-400.000000E-3	222.210455E-3	105.685043E-3	-400.000000E-3
84.140730E-3	5.235863E-3	12.125349E-3	-365.950871E-3	-400.000000E-3	222.207212E-3	105.686855E-3	-400.000000E-3
84.145737E-3	5.225945E-3	12.129450E-3	-365.928793E-3	-400.000000E-3	222.233057E-3	105.714083E-3	-400.000000E-3
84.148693E-3	5.215454E-3	12.129831E-3	-365.934849E-3	-400.000000E-3	222.227240E-3	105.710173E-3	-400.000000E-3
84.149885E-3	5.207729E-3	12.133026E-3	-365.967131E-3	-400.000000E-3	222.191238E-3	105.675507E-3	-400.000000E-3
84.148407E-3	5.193996E-3	12.080622E-3	-365.993786E-3	-400.000000E-3	222.164059E-3	105.651331E-3	-400.000000E-3
84.148264E-3	5.182838E-3	12.038422E-3	-365.993690E-3	-400.000000E-3	222.163486E-3	105.653000E-3	-400.000000E-3
84.148979E-3	5.186272E-3	12.035513E-3	-366.001177E-3	-400.000000E-3	222.148752E-3	105.640459E-3	-400.000000E-3
84.150171E-3	5.189085E-3	12.027216E-3	-366.011429E-3	-400.000000E-3	222.138453E-3	105.628729E-3	-400.000000E-3
84.150076E-3	5.196762E-3	11.996841E-3	-366.065836E-3	-400.000000E-3	222.088718E-3	105.574322E-3	-400.000000E-3
84.150076E-3	5.202293E-3	11.984730E-3	-366.069984E-3	-400.000000E-3	222.093582E-3	105.576944E-3	-400.000000E-3
84.147501E-3	5.201387E-3	11.951494E-3	-366.049147E-3	-400.000000E-3	222.118282E-3	105.598593E-3	-400.000000E-3
84.145260E-3	5.198288E-3	11.918116E-3	-366.021109E-3	-400.000000E-3	222.140074E-3	105.620003E-3	-400.000000E-3
84.144020E-3	5.196714E-3	11.892080E-3	-366.020870E-3	-400.000000E-3	222.139597E-3	105.618143E-3	-400.000000E-3
84.144735E-3	5.195761E-3	11.861992E-3	-366.071177E-3	-400.000000E-3	222.089720E-3	105.566168E-3	-400.000000E-3
84.144402E-3	5.188799E-3	11.831093E-3	-366.099977E-3	-400.000000E-3	222.063112E-3	105.539656E-3	-400.000000E-3
84.142923E-3	5.183649E-3	11.818600E-3	-366.070318E-3	-400.000000E-3	222.094488E-3	105.574131E-3	-400.000000E-3
84.141350E-3	5.171967E-3	11.800528E-3	-366.077805E-3	-400.000000E-3	222.092342E-3	105.575037E-3	-400.000000E-3
84.140921E-3	5.158091E-3	11.797333E-3	-366.083622E-3	-400.000000E-3	222.094059E-3	105.575848E-3	-400.000000E-3
84.141064E-3	5.160332E-3	11.776018E-3	-366.082430E-3	-400.000000E-3	222.095823E-3	105.579281E-3	-400.000000E-3
84.138727E-3	5.143976E-3	11.722851E-3	-366.143322E-3	-400.000000E-3	222.027016E-3	105.508661E-3	-400.000000E-3
84.137201E-3	5.146217E-3	11.691332E-3	-366.140175E-3	-400.000000E-3	222.024393E-3	105.504560E-3	-400.000000E-3
84.137297E-3	5.170298E-3	11.688995E-3	-366.074753E-3	-400.000000E-3	222.091150E-3	105.569267E-3	-400.000000E-3
84.138536E-3	5.154991E-3	11.662626E-3	-366.060972E-3	-400.000000E-3	222.106457E-3	105.584717E-3	-400.000000E-3
84.139872E-3	5.146646E-3	11.657524E-3	-366.111851E-3	-400.000000E-3	222.053289E-3	105.534983E-3	-400.000000E-3
84.141636E-3	5.151463E-3	11.675167E-3	-366.157055E-3	-400.000000E-3	222.006893E-3	105.495262E-3	-400.000000E-3
84.144306E-3	5.136538E-3	11.685228E-3	-366.181612E-3	-400.000000E-3	221.983433E-3	105.471373E-3	-400.000000E-3
84.140730E-3	5.125475E-3	11.675644E-3	-366.148472E-3	-400.000000E-3	222.020674E-3	105.500889E-3	-400.000000E-3
84.184074E-3	5.122137E-3	11.659908E-3	-365.996838E-3	-400.000000E-3	222.173882E-3	105.652952E-3	-400.000000E-3
84.396410E-3	5.100918E-3	11.633587E-3	-365.863991E-3	-400.000000E-3	222.316408E-3	105.792522E-3	-400.000000E-3
84.534121E-3	5.091953E-3	11.643124E-3	-365.824223E-3	-400.000000E-3	222.370100E-3	105.841875E-3	-400.000000E-3
84.584236E-3	5.109549E-3	11.670446E-3	-365.843821E-3	-400.000000E-3	222.364044E-3	105.837965E-3	-400.000000E-3
84.597063E-3	5.100870E-3	11.655283E-3	-365.854073E-3	-400.000000E-3	222.367859E-3	105.846786E-3	-400.000000E-3
84.595919E-3	5.106354E-3	11.640167E-3	-365.873384E-3	-400.000000E-3	222.361946E-3	105.837202E-3	-400.000000E-3
84.589386E-3	5.109596E-3	11.635828E-3	-365.879774E-3	-400.000000E-3	222.359705E-3	105.833912E-3	-400.000000E-3
84.581518E-3	5.105400E-3	11.618996E-3	-365.871286E-3	-400.000000E-3	222.368193E-3	105.845881E-3	-400.000000E-3
84.572124E-3	5.104160E-3	11.597109E-3	-365.890265E-3	-400.000000E-3	222.350788E-3	105.832767E-3	-400.000000E-3
84.562874E-3	5.113983E-3	11.597300E-3	-365.913439E-3	-400.000000E-3	222.331667E-3	105.812645E-3	-400.000000E-3
84.554720E-3	5.125427E-3	11.619043E-3	-365.924406E-3	-400.000000E-3	222.327614E-3	105.807114E-3	-400.000000E-3
84.544659E-3	5.135107E-3	11.627197E-3	-365.933037E-3	-400.000000E-3	222.320318E-3	105.801010E-3	-400.000000E-3
84.538174E-3	5.152130E-3	11.608410E-3	-365.930891E-3	-400.000000E-3	222.324085E-3	105.809355E-3	-400.000000E-3
84.533119E-3	5.161905E-3	11.571598E-3	-365.936375E-3	-400.000000E-3	222.316790E-3	105.802727E-3	-400.000000E-3
84.524822E-3	5.157995E-3	11.517859E-3	-365.959597E-3	-400.000000E-3	222.296524E-3	105.780172E-3	-400.000000E-3
84.521008E-3	5.152178E-3	11.453581E-3	-365.985823E-3	-400.000000E-3	222.276783E-3	105.759525E-3	-400.000000E-3
84.519291E-3	5.153942E-3	11.405087E-3	-366.020441E-3	-400.000000E-3	222.242641E-3	105.726004E-3	-400.000000E-3
84.517765E-3	5.167389E-3	11.359262E-3	-366.051960E-3	-400.000000E-3	222.211027E-3	105.696344E-3	-400.000000E-3
84.515715E-3	5.178881E-3	11.291122E-3	-366.079855E-3	-400.000000E-3	222.182751E-3	105.665350E-3	-400.000000E-3
84.513950E-3	5.196905E-3	11.238098E-3	-366.133976E-3	-400.000000E-3	222.129965E-3	105.611610E-3	-400.000000E-3
84.510040E-3	5.214262E-3	11.248064E-3	-366.148424E-3	-400.000000E-3	222.119761E-3	105.601597E-3	-400.000000E-3
84.508705E-3	5.219984E-3	11.311436E-3	-366.111612E-3	-400.000000E-3	222.159100E-3	105.639744E-3	-400.000000E-3
84.509706E-3	5.217981E-3	11.431456E-3	-366.043282E-3	-400.000000E-3	222.230101E-3	105.710793E-3	-400.000000E-3
84.507227E-3	5.215359E-3	11.617661E-3	-365.960217E-3	-400.000000E-3	222.314167E-3	105.798769E-3	-400.000000E-3
84.506226E-3	5.218267E-3	11.882114E-3	-365.825224E-3	-400.000000E-3	222.452211E-3	105.939722E-3	-400.000000E-3
84.506512E-3	5.200529E-3	12.170696E-3	-365.650272E-3	-400.000000E-3	222.625875E-3	106.113625E-3	-400.000000E-3
84.506512E-3	5.206251E-3	12.467337E-3	-365.492535E-3	-400.000000E-3	222.780895E-3	106.267118E-3	-400.000000E-3
84.501171E-3	5.241299E-3	12.706232E-3	-365.360308E-3	-400.000000E-3	222.911787E-3	106.398916E-3	-400.000000E-3
84.496355E-3	5.295181E-3	12.919855E-3	-365.271139E-3	-400.000000E-3	223.004150E-3	106.490660E-3	-400.000000E-3
84.493685E-3	5.300426E-3	13.052034E-3	-365.188932E-3	-400.000000E-3	223.088932E-3	106.575060E-3	-400.000000E-3
84.494638E-3	5.299139E-3	13.046169E-3	-365.175629E-3	-400.000000E-3	223.101091E-3	106.586170E-3	-400.000000E-3
84.493351E-3	5.269957E-3	12.809229E-3	-365.277624E-3	-400.000000E-3	223.003054E-3	106.484890E-3	-400.000000E-3
84.491777E-3	5.186844E-3	12.500143E-3	-365.380573E-3	-400.000000E-3	222.897816E-3	106.383657E-3	-400.000000E-3
84.493208E-3	5.087471E-3	12.300444E-3	-365.444040E-3	-400.000000E-3	222.834826E-3	106.321859E-3	-400.000000E-3
84.494066E-3	4.976463E-3	12.155437E-3	-365.452385E-3	-400.000000E-3	222.827339E-3	106.315231E-3	-400.000000E-3
84.494019E-3	4.892969E-3	11.967421E-3	-365.473223E-3	-400.000000E-3	222.806644E-3	106.293488E-3	-400.000000E-3
84.494638E-3	4.875946E-3	11.854553E-3	-365.517378E-3	-400.000000E-3	222.758102E-3	106.243134E-3	-400.000000E-3
84.492588E-3	4.908848E-3	11.797333E-3	-365.557003E-3	-400.000000E-3	222.711658E-3	106.194830E-3	-400.000000E-3
84.489918E-3	4.952955E-3	11.745358E-3	-365.581465E-3	-400.000000E-3	222.684383E-3	106.166363E-3	-400.000000E-3
84.490490E-3	5.030537E-3	11.660385E-3	-365.646648E-3	-400.000000E-3	222.617197E-3	106.097555E-3	-400.000000E-3
84.486961E-3	5.111504E-3	11.573744E-3	-365.712833E-3	-400.000000E-3	222.553062E-3	106.027746E-3	-400.000000E-3
84.484339E-3	5.158329E-3	11.536551E-3	-365.739155E-3	-400.000000E-3	222.536182E-3	106.008339E-3	-400.000000E-3
84.485388E-3	5.180073E-3	11.521769E-3	-365.772772E-3	-400.000000E-3	222.501802E-3	105.982542E-3	-400.000000E-3
84.484434E-3	5.179358E-3	11.497688E-3	-365.801144E-3	-400.000000E-3	222.467089E-3	105.957699E-3	-400.000000E-3
84.483767E-3	5.169916E-3	11.488533E-3	-365.809250E-3	-400.000000E-3	222.459984E-3	105.950499E-3	-400.000000E-3
84.485769E-3	5.151415E-3	11.489677E-3	-365.804291E-3	-400.000000E-3	222.464514E-3	105.956125E-3	-400.000000E-3
84.485912E-3	5.136919E-3	11.497211E-3	-365.794134E-3	-400.000000E-3	222.471285E-3	105.965042E-3	-400.000000E-3
84.487724E-3	5.134535E-3	11.486483E-3	-365.811539E-3	-400.000000E-3	222.449017E-3	105.940676E-3	-400.000000E-3
84.488821E-3	5.123186E-3	11.468697E-3	-365.810728E-3	-400.000000E-3	222.446346E-3	105.937433E-3	-400.000000E-3
84.489393E-3	5.115461E-3	11.465597E-3	-365.796518E-3	-400.000000E-3	222.462559E-3	105.952692E-3	-400.000000E-3
84.487629E-3	5.116415E-3	11.469173E-3	-365.810728E-3	-400.000000E-3	222.445679E-3	105.938721E-3	-400.000000E-3
84.488201E-3	5.115080E-3	11.469316E-3	-365.810347E-3	-400.000000E-3	222.450399E-3	105.938387E-3	-400.000000E-3
84.490681E-3	5.117559E-3	11.471224E-3	-365.810680E-3	-400.000000E-3	222.450876E-3	105.932999E-3	-400.000000E-3
84.487629E-3	5.121756E-3	11.478949E-3	-365.795708E-3	-400.000000E-3	222.466087E-3	105.946255E-3	-400.000000E-3
84.487867E-3	5.114937E-3	11.467648E-3	-365.801001E-3	-400.000000E-3	222.465944E-3	105.944824E-3	-400.000000E-3
84.489584E-3	5.115175E-3	11.471558E-3	-365.790176E-3	-400.000000E-3	222.478104E-3	105.953026E-3	-400.000000E-3
84.488440E-3	5.115414E-3	11.478996E-3	-365.784121E-3	-400.000000E-3	222.482204E-3	105.955458E-3	-400.000000E-3
84.486914E-3	5.113745E-3	11.482048E-3	-365.792799E-3	-400.000000E-3	222.471285E-3	105.945253E-3	-400.000000E-3
84.484768E-3	5.121756E-3	11.486912E-3	-365.785694E-3	-400.000000E-3	222.467136E-3	105.943727E-3	-400.000000E-3
84.482098E-3	5.120659E-3	11.508036E-3	-365.770531E-3	-400.000000E-3	222.471809E-3	105.948114E-3	-400.000000E-3
84.479332E-3	5.124283E-3	11.514902E-3	-365.750599E-3	-400.000000E-3	222.487593E-3	105.960989E-3	-400.000000E-3
84.477139E-3	5.138063E-3	11.525059E-3	-365.748692E-3	-400.000000E-3	222.486639E-3	105.955410E-3	-400.000000E-3
84.477186E-3	5.139208E-3	11.529827E-3	-365.744686E-3	-400.000000E-3	222.484732E-3	105.953598E-3	-400.000000E-3
84.477377E-3	5.136490E-3	11.528349E-3	-365.737104E-3	-400.000000E-3	222.484779E-3	105.962849E-3	-400.000000E-3
84.476042E-3	5.135393E-3	11.527538E-3	-365.728045E-3	-400.000000E-3	222.478914E-3	105.961466E-3	-400.000000E-3
84.474993E-3	5.129862E-3	11.526775E-3	-365.700769E-3	-400.000000E-3	222.496510E-3	105.979490E-3	-400.000000E-3
84.474039E-3	5.134583E-3	11.520052E-3	-365.710068E-3	-400.000000E-3	222.480249E-3	105.962515E-3	-400.000000E-3
84.476089E-3	5.144835E-3	11.522961E-3	-365.707922E-3	-400.000000E-3	222.483206E-3	105.967665E-3	-400.000000E-3
84.479761E-3	5.142736E-3	11.531401E-3	-365.692520E-3	-400.000000E-3	222.502661E-3	105.987453E-3	-400.000000E-3
84.479856E-3	5.151081E-3	11.550951E-3	-365.686798E-3	-400.000000E-3	222.507191E-3	105.990076E-3	-400.000000E-3
84.476519E-3	5.156660E-3	11.557055E-3	-365.683746E-3	-400.000000E-3	222.505045E-3	105.992222E-3	-400.000000E-3
84.476757E-3	5.165529E-3	11.577082E-3	-365.677643E-3	-400.000000E-3	222.513151E-3	105.996895E-3	-400.000000E-3
84.475803E-3	5.170059E-3	11.602497E-3	-365.676832E-3	-400.000000E-3	222.512341E-3	105.995178E-3	-400.000000E-3
84.473991E-3	5.175304E-3	11.630487E-3	-365.677404E-3	-400.000000E-3	222.509432E-3	105.994034E-3	-400.000000E-3
84.476089E-3	5.165625E-3	11.644077E-3	-365.677881E-3	-400.000000E-3	222.505140E-3	105.983782E-3	-400.000000E-3
84.479952E-3	5.173111E-3	11.667919E-3	-365.662003E-3	-400.000000E-3	222.520018E-3	105.993652E-3	-400.000000E-3
84.479713E-3	5.171442E-3	11.668873E-3	-365.644550E-3	-400.000000E-3	222.542238E-3	106.007624E-3	-400.000000E-3
84.480333E-3	5.184841E-3	11.678171E-3	-365.647268E-3	-400.000000E-3	222.542906E-3	106.008911E-3	-400.000000E-3
84.481668E-3	5.195665E-3	11.697006E-3	-365.649986E-3	-400.000000E-3	222.540760E-3	106.015348E-3	-400.000000E-3
84.483719E-3	5.200386E-3	11.702728E-3	-365.641403E-3	-400.000000E-3	222.551727E-3	106.029367E-3	-400.000000E-3
84.481907E-3	5.198860E-3	11.708212E-3	-365.618992E-3	-400.000000E-3	222.576761E-3	106.051254E-3	-400.000000E-3
84.480667E-3	5.212355E-3	11.729765E-3	-365.588760E-3	-400.000000E-3	222.607946E-3	106.082010E-3	-400.000000E-3
84.480333E-3	5.227804E-3	11.743927E-3	-365.585661E-3	-400.000000E-3	222.610760E-3	106.082726E-3	-400.000000E-3
84.475279E-3	5.234528E-3	11.747885E-3	-365.594101E-3	-400.000000E-3	222.602510E-3	106.070423E-3	-400.000000E-3
84.468031E-3	5.244303E-3	11.755848E-3	-365.602589E-3	-400.000000E-3	222.589397E-3	106.057787E-3	-400.000000E-3
84.463072E-3	5.276585E-3	11.765575E-3	-365.601206E-3	-400.000000E-3	222.585106E-3	106.058025E-3	-400.000000E-3
84.461737E-3	5.277824E-3	11.770058E-3	-365.595531E-3	-400.000000E-3	222.590160E-3	106.068277E-3	-400.000000E-3
84.462309E-3	5.265570E-3	11.773443E-3	-365.590382E-3	-400.000000E-3	222.599173E-3	106.070662E-3	-400.000000E-3
84.459686E-3	5.270243E-3	11.791658E-3	-365.566874E-3	-400.000000E-3	222.625780E-3	106.092882E-3	-400.000000E-3
84.456253E-3	5.292225E-3	11.823320E-3	-365.567541E-3	-400.000000E-3	222.626734E-3	106.087780E-3	-400.000000E-3
84.454393E-3	5.316401E-3	11.858511E-3	-365.558243E-3	-400.000000E-3	222.633600E-3	106.088305E-3	-400.000000E-3
84.456253E-3	5.320263E-3	11.876869E-3	-365.533400E-3	-400.000000E-3	222.654915E-3	106.106663E-3	-400.000000E-3
84.456158E-3	5.331230E-3	11.902094E-3	-365.530396E-3	-400.000000E-3	222.656631E-3	106.101179E-3	-400.000000E-3
84.457350E-3	5.352926E-3	11.930799E-3	-365.535927E-3	-400.000000E-3	222.653913E-3	106.091595E-3	-400.000000E-3
84.458017E-3	5.363131E-3	11.953688E-3	-365.524006E-3	-400.000000E-3	222.668362E-3	106.097031E-3	-400.000000E-3
84.457445E-3	5.363512E-3	11.951971E-3	-365.505314E-3	-400.000000E-3	222.688389E-3	106.109381E-3	-400.000000E-3
84.457684E-3	5.372238E-3	11.976671E-3	-365.481043E-3	-400.000000E-3	222.718668E-3	106.139755E-3	-400.000000E-3
84.457064E-3	5.386257E-3	12.010765E-3	-365.475893E-3	-400.000000E-3	222.727633E-3	106.150198E-3	-400.000000E-3
84.455824E-3	5.378962E-3	12.032795E-3	-365.449715E-3	-400.000000E-3	222.753191E-3	106.177711E-3	-400.000000E-3
84.456968E-3	5.376625E-3	12.038755E-3	-365.428305E-3	-400.000000E-3	222.773600E-3	106.199265E-3	-400.000000E-3
84.457731E-3	5.372381E-3	12.052917E-3	-365.433884E-3	-400.000000E-3	222.770691E-3	106.190109E-3	-400.000000E-3
84.457731E-3	5.386066E-3	12.076473E-3	-365.419960E-3	-400.000000E-3	222.787142E-3	106.197786E-3	-400.000000E-3
84.456682E-3	5.385017E-3	12.087107E-3	-365.407658E-3	-400.000000E-3	222.799492E-3	106.207180E-3	-400.000000E-3
84.457254E-3	5.384254E-3	12.108135E-3	-365.389776E-3	-400.000000E-3	222.817183E-3	106.221867E-3	-400.000000E-3
84.457827E-3	5.404615E-3	12.127542E-3	-365.392685E-3	-400.000000E-3	222.810411E-3	106.212473E-3	-400.000000E-3
84.457064E-3	5.395842E-3	12.136745E-3	-365.401602E-3	-400.000000E-3	222.793674E-3	106.197309E-3	-400.000000E-3
84.456348E-3	5.377102E-3	12.122536E-3	-365.367746E-3	-400.000000E-3	222.816658E-3	106.226635E-3	-400.000000E-3
84.456301E-3	5.380678E-3	12.135172E-3	-365.331364E-3	-400.000000E-3	222.855091E-3	106.262398E-3	-400.000000E-3
84.453440E-3	5.391502E-3	12.156630E-3	-365.323734E-3	-400.000000E-3	222.859049E-3	106.267309E-3	-400.000000E-3
84.450054E-3	5.394745E-3	12.178469E-3	-365.324545E-3	-400.000000E-3	222.851944E-3	106.263161E-3	-400.000000E-3
84.446001E-3	5.380774E-3	12.209797E-3	-365.337324E-3	-400.000000E-3	222.835207E-3	106.242228E-3	-400.000000E-3
84.441471E-3	5.376625E-3	12.223673E-3	-365.304375E-3	-400.000000E-3	222.866440E-3	106.266975E-3	-400.000000E-3
84.440279E-3	5.376720E-3	12.214231E-3	-365.284014E-3	-400.000000E-3	222.884178E-3	106.287003E-3	-400.000000E-3
84.439850E-3	5.369139E-3	12.190390E-3	-365.255976E-3	-400.000000E-3	222.903967E-3	106.314039E-3	-400.000000E-3
84.438133E-3	5.375528E-3	12.183619E-3	-365.226173E-3	-400.000000E-3	222.930956E-3	106.339884E-3	-400.000000E-3
84.438372E-3	5.364370E-3	12.174082E-3	-365.212107E-3	-400.000000E-3	222.941208E-3	106.354523E-3	-400.000000E-3
84.439564E-3	5.350876E-3	12.148094E-3	-365.206480E-3	-400.000000E-3	222.944164E-3	106.360626E-3	-400.000000E-3
84.439707E-3	5.360413E-3	12.144566E-3	-365.191984E-3	-400.000000E-3	222.950983E-3	106.372881E-3	-400.000000E-3
84.439182E-3	5.373669E-3	12.157297E-3	-365.189362E-3	-400.000000E-3	222.946024E-3	106.372261E-3	-400.000000E-3
84.436560E-3	5.371284E-3	12.154198E-3	-365.194750E-3	-400.000000E-3	222.934055E-3	106.368971E-3	-400.000000E-3
84.434271E-3	5.357552E-3	12.142754E-3	-365.185547E-3	-400.000000E-3	222.938824E-3	106.382370E-3	-400.000000E-3
84.432364E-3	5.334568E-3	12.105274E-3	-365.202236E-3	-400.000000E-3	222.920704E-3	106.365347E-3	-400.000000E-3
84.429693E-3	5.353880E-3	12.124586E-3	-365.200472E-3	-400.000000E-3	222.912931E-3	106.355906E-3	-400.000000E-3
84.432697E-3	5.370569E-3	12.135029E-3	-365.208769E-3	-400.000000E-3	222.898340E-3	106.342173E-3	-400.000000E-3
84.435701E-3	5.353022E-3	12.137651E-3	-365.207052E-3	-400.000000E-3	222.895527E-3	106.340313E-3	-400.000000E-3
84.438133E-3	5.330801E-3	12.136745E-3	-365.163565E-3	-400.000000E-3	222.933340E-3	106.376219E-3	-400.000000E-3
84.439087E-3	5.334711E-3	12.130404E-3	-365.128756E-3	-400.000000E-3	222.962761E-3	106.405544E-3	-400.000000E-3
84.438372E-3	5.313587E-3	12.096786E-3	-365.119696E-3	-400.000000E-3	222.963858E-3	106.407452E-3	-400.000000E-3
84.438610E-3	5.290270E-3	12.087774E-3	-365.114689E-3	-400.000000E-3	222.960186E-3	106.405449E-3	-400.000000E-3
84.438562E-3	5.288219E-3	12.073135E-3	-365.125608E-3	-400.000000E-3	222.941589E-3	106.390381E-3	-400.000000E-3
84.436464E-3	5.294466E-3	12.089539E-3	-365.120125E-3	-400.000000E-3	222.941780E-3	106.391382E-3	-400.000000E-3
84.436941E-3	5.304861E-3	12.095976E-3	-365.111780E-3	-400.000000E-3	222.943306E-3	106.390524E-3	-400.000000E-3
84.437513E-3	5.284500E-3	12.083340E-3	-365.094090E-3	-400.000000E-3	222.953463E-3	106.405973E-3	-400.000000E-3
84.437323E-3	5.269957E-3	12.060833E-3	-365.087318E-3	-400.000000E-3	222.958612E-3	106.409025E-3	-400.000000E-3
84.436560E-3	5.272675E-3	12.039232E-3	-365.099621E-3	-400.000000E-3	222.938251E-3	106.388950E-3	-400.000000E-3
84.435129E-3	5.273342E-3	12.029791E-3	-365.117216E-3	-400.000000E-3	222.919607E-3	106.370163E-3	-400.000000E-3
84.432888E-3	5.271149E-3	12.022495E-3	-365.105677E-3	-400.000000E-3	222.928905E-3	106.375885E-3	-400.000000E-3
84.429598E-3	5.253744E-3	12.006903E-3	-365.096855E-3	-400.000000E-3	222.929287E-3	106.380749E-3	-400.000000E-3
84.427023E-3	5.232048E-3	12.008476E-3	-365.069962E-3	-400.000000E-3	222.948503E-3	106.404305E-3	-400.000000E-3
84.424543E-3	5.236530E-3	12.004185E-3	-365.089655E-3	-400.000000E-3	222.923088E-3	106.384420E-3	-400.000000E-3
84.423447E-3	5.256701E-3	12.000036E-3	-365.093899E-3	-400.000000E-3	222.911501E-3	106.372499E-3	-400.000000E-3
84.422302E-3	5.244875E-3	11.992884E-3	-365.072823E-3	-400.000000E-3	222.921610E-3	106.381607E-3	-400.000000E-3
84.422445E-3	5.252838E-3	11.982203E-3	-365.085411E-3	-400.000000E-3	222.898293E-3	106.358576E-3	-400.000000E-3
84.423923E-3	5.264473E-3	11.996651E-3	-365.068388E-3	-400.000000E-3	222.906160E-3	106.373215E-3	-400.000000E-3
84.423733E-3	5.264235E-3	12.014914E-3	-365.051556E-3	-400.000000E-3	222.914124E-3	106.384230E-3	-400.000000E-3
84.420490E-3	5.258989E-3	12.023020E-3	-365.031528E-3	-400.000000E-3	222.930241E-3	106.393099E-3	-400.000000E-3
84.419775E-3	5.247688E-3	12.023830E-3	-365.006971E-3	-400.000000E-3	222.947454E-3	106.406832E-3	-400.000000E-3
84.420967E-3	5.232477E-3	12.010336E-3	-364.969683E-3	-400.000000E-3	222.974014E-3	106.433535E-3	-400.000000E-3
84.425163E-3	5.200100E-3	11.973143E-3	-364.944172E-3	-400.000000E-3	222.993517E-3	106.452322E-3	-400.000000E-3
84.427404E-3	5.204153E-3	11.987638E-3	-364.928770E-3	-400.000000E-3	223.000669E-3	106.459570E-3	-400.000000E-3
84.426928E-3	5.199099E-3	11.991739E-3	-364.913273E-3	-400.000000E-3	223.009539E-3	106.472445E-3	-400.000000E-3
84.425879E-3	5.187321E-3	11.983919E-3	-364.901829E-3	-400.000000E-3	223.013687E-3	106.478167E-3	-400.000000E-3
84.423971E-3	5.177879E-3	11.968994E-3	-364.911318E-3	-400.000000E-3	222.999477E-3	106.458378E-3	-400.000000E-3
84.422398E-3	5.201530E-3	11.979246E-3	-364.919424E-3	-400.000000E-3	222.980690E-3	106.437922E-3	-400.000000E-3
84.420586E-3	5.191326E-3	11.987400E-3	-364.917612E-3	-400.000000E-3	222.971678E-3	106.430149E-3	-400.000000E-3
84.415436E-3	5.197668E-3	12.008810E-3	-364.890003E-3	-400.000000E-3	222.992373E-3	106.454563E-3	-400.000000E-3
84.414148E-3	5.211401E-3	12.013245E-3	-364.862633E-3	-400.000000E-3	223.015738E-3	106.474924E-3	-400.000000E-3
84.411144E-3	5.200815E-3	12.004423E-3	-364.828777E-3	-400.000000E-3	223.047876E-3	106.499577E-3	-400.000000E-3
84.410095E-3	5.201149E-3	12.019110E-3	-364.813566E-3	-400.000000E-3	223.058033E-3	106.512117E-3	-400.000000E-3
84.410095E-3	5.196095E-3	12.052822E-3	-364.801407E-3	-400.000000E-3	223.063278E-3	106.523180E-3	-400.000000E-3
84.408522E-3	5.174780E-3	12.062120E-3	-364.798594E-3	-400.000000E-3	223.065186E-3	106.526327E-3	-400.000000E-3
84.406137E-3	5.160236E-3	12.032413E-3	-364.770985E-3	-400.000000E-3	223.089266E-3	106.550455E-3	-400.000000E-3
84.406567E-3	5.150127E-3	12.004662E-3	-364.759302E-3	-400.000000E-3	223.087358E-3	106.552267E-3	-400.000000E-3
84.407234E-3	5.144262E-3	11.999798E-3	-364.777946E-3	-400.000000E-3	223.048496E-3	106.519508E-3	-400.000000E-3
84.405804E-3	5.147600E-3	12.003469E-3	-364.751911E-3	-400.000000E-3	223.059082E-3	106.531477E-3	-400.000000E-3
84.402704E-3	5.162191E-3	11.999035E-3	-364.716434E-3	-400.000000E-3	223.082447E-3	106.560087E-3	-400.000000E-3
84.401369E-3	5.172920E-3	11.982012E-3	-364.726734E-3	-400.000000E-3	223.060083E-3	106.545925E-3	-400.000000E-3
84.400654E-3	5.153131E-3	11.931324E-3	-364.753389E-3	-400.000000E-3	223.015356E-3	106.502199E-3	-400.000000E-3
84.397936E-3	5.170727E-3	11.902809E-3	-364.762020E-3	-400.000000E-3	222.997046E-3	106.479454E-3	-400.000000E-3
84.397125E-3	5.173397E-3	11.899948E-3	-364.746284E-3	-400.000000E-3	223.007584E-3	106.485271E-3	-400.000000E-3
84.398508E-3	5.170298E-3	11.860752E-3	-364.721775E-3	-400.000000E-3	223.020458E-3	106.495810E-3	-400.000000E-3
84.398699E-3	5.186939E-3	11.823797E-3	-364.700699E-3	-400.000000E-3	223.030138E-3	106.507206E-3	-400.000000E-3
84.397221E-3	5.169725E-3	11.794758E-3	-364.720917E-3	-400.000000E-3	223.005915E-3	106.485510E-3	-400.000000E-3
84.396315E-3	5.186510E-3	11.804104E-3	-364.740896E-3	-400.000000E-3	222.979116E-3	106.459570E-3	-400.000000E-3
84.396029E-3	5.177259E-3	11.779737E-3	-364.744139E-3	-400.000000E-3	222.973251E-3	106.447363E-3	-400.000000E-3
84.395313E-3	5.176449E-3	11.777353E-3	-364.757967E-3	-400.000000E-3	222.955751E-3	106.424570E-3	-400.000000E-3
84.397697E-3	5.172062E-3	11.765194E-3	-364.785051E-3	-400.000000E-3	222.920704E-3	106.384182E-3	-400.000000E-3
84.399462E-3	5.156326E-3	11.750841E-3	-364.815426E-3	-400.000000E-3	222.885084E-3	106.340790E-3	-400.000000E-3
84.400845E-3	5.115366E-3	11.712456E-3	-364.837551E-3	-400.000000E-3	222.847462E-3	106.305456E-3	-400.000000E-3
84.402466E-3	5.109119E-3	11.709261E-3	-364.816380E-3	-400.000000E-3	222.857761E-3	106.314182E-3	-400.000000E-3
84.401703E-3	5.126762E-3	11.713409E-3	-364.754534E-3	-400.000000E-3	222.914934E-3	106.367064E-3	-400.000000E-3
84.400129E-3	5.132198E-3	11.703777E-3	-364.745808E-3	-400.000000E-3	222.917175E-3	106.366491E-3	-400.000000E-3
84.400082E-3	5.123425E-3	11.686993E-3	-364.740992E-3	-400.000000E-3	222.914171E-3	106.358862E-3	-400.000000E-3
84.400463E-3	5.107594E-3	11.666346E-3	-364.749432E-3	-400.000000E-3	222.897768E-3	106.336975E-3	-400.000000E-3
84.397507E-3	5.111504E-3	11.646461E-3	-364.752913E-3	-400.000000E-3	222.881746E-3	106.316376E-3	-400.000000E-3
84.393644E-3	5.103827E-3	11.637878E-3	-364.740705E-3	-400.000000E-3	222.880554E-3	106.319809E-3	-400.000000E-3
84.389734E-3	5.108118E-3	11.665630E-3	-364.726162E-3	-400.000000E-3	222.886562E-3	106.331539E-3	-400.000000E-3
84.389257E-3	5.114174E-3	11.683130E-3	-364.729071E-3	-400.000000E-3	222.871971E-3	106.316853E-3	-400.000000E-3
84.391308E-3	5.114222E-3	11.663151E-3	-364.693737E-3	-400.000000E-3	222.891760E-3	106.339836E-3	-400.000000E-3
84.390259E-3	5.111504E-3	11.670732E-3	-364.629650E-3	-400.000000E-3	222.940350E-3	106.391430E-3	-400.000000E-3
84.389210E-3	5.095291E-3	11.677980E-3	-364.611816E-3	-400.000000E-3	222.941732E-3	106.395769E-3	-400.000000E-3
84.388733E-3	5.094385E-3	11.691809E-3	-364.613056E-3	-400.000000E-3	222.929382E-3	106.384373E-3	-400.000000E-3
84.390593E-3	5.112839E-3	11.700201E-3	-364.636183E-3	-400.000000E-3	222.900581E-3	106.353903E-3	-400.000000E-3
84.392691E-3	5.105400E-3	11.671066E-3	-364.640760E-3	-400.000000E-3	222.889090E-3	106.338787E-3	-400.000000E-3
84.393311E-3	5.096197E-3	11.640930E-3	-364.626741E-3	-400.000000E-3	222.893572E-3	106.340885E-3	-400.000000E-3
84.393501E-3	5.094004E-3	11.614180E-3	-364.614820E-3	-400.000000E-3	222.888374E-3	106.336260E-3	-400.000000E-3
84.395313E-3	5.100632E-3	11.577511E-3	-364.627647E-3	-400.000000E-3	222.860479E-3	106.303930E-3	-400.000000E-3
84.394598E-3	5.099773E-3	11.560106E-3	-364.608002E-3	-400.000000E-3	222.861195E-3	106.305790E-3	-400.000000E-3
84.392691E-3	5.088377E-3	11.524725E-3	-364.618015E-3	-400.000000E-3	222.830200E-3	106.274080E-3	-400.000000E-3
84.393215E-3	5.126143E-3	11.498213E-3	-364.636517E-3	-400.000000E-3	222.800589E-3	106.238842E-3	-400.000000E-3
84.391117E-3	5.145121E-3	11.473322E-3	-364.612770E-3	-400.000000E-3	222.821093E-3	106.258297E-3	-400.000000E-3
84.388781E-3	5.113220E-3	11.428165E-3	-364.604568E-3	-400.000000E-3	222.825766E-3	106.262922E-3	-400.000000E-3
84.388924E-3	5.141401E-3	11.380434E-3	-364.598083E-3	-400.000000E-3	222.834873E-3	106.270313E-3	-400.000000E-3
84.388876E-3	5.168390E-3	11.307049E-3	-364.622211E-3	-400.000000E-3	222.819090E-3	106.247711E-3	-400.000000E-3
84.387445E-3	5.172968E-3	11.224031E-3	-364.652681E-3	-400.000000E-3	222.791100E-3	106.216049E-3	-400.000000E-3
84.386873E-3	5.216646E-3	11.220837E-3	-364.665937E-3	-400.000000E-3	222.784376E-3	106.205559E-3	-400.000000E-3
84.387541E-3	5.216169E-3	11.313200E-3	-364.685631E-3	-400.000000E-3	222.765112E-3	106.187630E-3	-400.000000E-3
84.386492E-3	5.226803E-3	11.450386E-3	-364.633846E-3	-400.000000E-3	222.815275E-3	106.238174E-3	-400.000000E-3
84.386969E-3	5.240202E-3	11.584902E-3	-364.572954E-3	-400.000000E-3	222.865725E-3	106.289577E-3	-400.000000E-3
84.389019E-3	5.284834E-3	11.811733E-3	-364.470339E-3	-400.000000E-3	222.958899E-3	106.383133E-3	-400.000000E-3
84.390211E-3	5.319071E-3	12.082005E-3	-364.358711E-3	-400.000000E-3	223.063898E-3	106.486034E-3	-400.000000E-3
84.390545E-3	5.326128E-3	12.357950E-3	-364.198256E-3	-400.000000E-3	223.214769E-3	106.638241E-3	-400.000000E-3
84.392929E-3	5.333138E-3	12.606096E-3	-364.042568E-3	-400.000000E-3	223.366404E-3	106.786251E-3	-400.000000E-3
84.395885E-3	5.350637E-3	12.812185E-3	-363.898802E-3	-400.000000E-3	223.499441E-3	106.919813E-3	-400.000000E-3
84.398222E-3	5.323696E-3	12.965250E-3	-363.744593E-3	-400.000000E-3	223.641062E-3	107.063055E-3	-400.000000E-3
84.399176E-3	5.270958E-3	13.015604E-3	-363.638210E-3	-400.000000E-3	223.734522E-3	107.157803E-3	-400.000000E-3
84.399891E-3	5.199194E-3	12.858534E-3	-363.652945E-3	-400.000000E-3	223.713589E-3	107.133436E-3	-400.000000E-3
84.399986E-3	5.100489E-3	12.610006E-3	-363.710833E-3	-400.000000E-3	223.652983E-3	107.072067E-3	-400.000000E-3
84.401894E-3	4.999542E-3	12.350941E-3	-363.745451E-3	-400.000000E-3	223.611736E-3	107.023239E-3	-400.000000E-3
84.401321E-3	4.927063E-3	12.175941E-3	-363.763380E-3	-400.000000E-3	223.586464E-3	106.992912E-3	-400.000000E-3
84.398937E-3	4.848480E-3	12.027979E-3	-363.806200E-3	-400.000000E-3	223.534775E-3	106.945229E-3	-400.000000E-3
84.401512E-3	4.826212E-3	11.911631E-3	-363.845396E-3	-400.000000E-3	223.481083E-3	106.896687E-3	-400.000000E-3
84.400940E-3	4.844332E-3	11.841202E-3	-363.889694E-3	-400.000000E-3	223.425055E-3	106.845331E-3	-400.000000E-3
84.398413E-3	4.896832E-3	11.816931E-3	-363.907290E-3	-400.000000E-3	223.397112E-3	106.815386E-3	-400.000000E-3
84.398031E-3	4.972601E-3	11.806774E-3	-363.921213E-3	-400.000000E-3	223.372269E-3	106.781149E-3	-400.000000E-3
84.398413E-3	5.039930E-3	11.778164E-3	-363.942671E-3	-400.000000E-3	223.342609E-3	106.742907E-3	-400.000000E-3
84.398937E-3	5.095196E-3	11.707211E-3	-364.005899E-3	-400.000000E-3	223.268127E-3	106.665897E-3	-400.000000E-3
84.401798E-3	5.132771E-3	11.629725E-3	-364.073038E-3	-400.000000E-3	223.188114E-3	106.588888E-3	-400.000000E-3
84.402370E-3	5.149412E-3	11.550570E-3	-364.108372E-3	-400.000000E-3	223.134804E-3	106.540585E-3	-400.000000E-3
84.403467E-3	5.174065E-3	11.492062E-3	-364.149761E-3	-400.000000E-3	223.080063E-3	106.478500E-3	-400.000000E-3
84.399462E-3	5.186558E-3	11.455679E-3	-364.172173E-3	-400.000000E-3	223.044538E-3	106.433916E-3	-400.000000E-3
84.396076E-3	5.184078E-3	11.466312E-3	-364.163971E-3	-400.000000E-3	223.038673E-3	106.429672E-3	-400.000000E-3
84.395599E-3	5.174208E-3	11.504126E-3	-364.184141E-3	-400.000000E-3	223.002481E-3	106.396151E-3	-400.000000E-3
84.394360E-3	5.155849E-3	11.532545E-3	-364.220476E-3	-400.000000E-3	222.957993E-3	106.347466E-3	-400.000000E-3
84.392214E-3	5.145597E-3	11.535549E-3	-364.217806E-3	-400.000000E-3	222.946215E-3	106.334162E-3	-400.000000E-3
84.390306E-3	5.132580E-3	11.528397E-3	-364.176846E-3	-400.000000E-3	222.973728E-3	106.355190E-3	-400.000000E-3
84.392262E-3	5.135107E-3	11.543512E-3	-364.146662E-3	-400.000000E-3	222.991753E-3	106.368256E-3	-400.000000E-3
84.395218E-3	5.142832E-3	11.550331E-3	-364.143372E-3	-400.000000E-3	222.982788E-3	106.354189E-3	-400.000000E-3
84.397650E-3	5.136776E-3	11.539125E-3	-364.144993E-3	-400.000000E-3	222.967529E-3	106.336546E-3	-400.000000E-3
84.401035E-3	5.139637E-3	11.536837E-3	-364.152431E-3	-400.000000E-3	222.957420E-3	106.322336E-3	-400.000000E-3
84.400845E-3	5.135918E-3	11.522484E-3	-364.191151E-3	-400.000000E-3	222.924519E-3	106.285381E-3	-400.000000E-3
84.398556E-3	5.146313E-3	11.514902E-3	-364.231777E-3	-400.000000E-3	222.889423E-3	106.242561E-3	-400.000000E-3
84.394789E-3	5.141354E-3	11.485004E-3	-364.269495E-3	-400.000000E-3	222.855425E-3	106.200743E-3	-400.000000E-3
84.391689E-3	5.146646E-3	11.492157E-3	-364.317751E-3	-400.000000E-3	222.800684E-3	106.144381E-3	-400.000000E-3
84.387350E-3	5.150986E-3	11.523533E-3	-364.370060E-3	-400.000000E-3	222.739410E-3	106.079292E-3	-400.000000E-3
84.384441E-3	5.150747E-3	11.586905E-3	-364.409018E-3	-400.000000E-3	222.681189E-3	106.020355E-3	-400.000000E-3
84.386253E-3	5.142021E-3	11.598158E-3	-364.441204E-3	-400.000000E-3	222.628355E-3	105.964851E-3	-400.000000E-3
84.385777E-3	5.140257E-3	11.571121E-3	-364.486313E-3	-400.000000E-3	222.568226E-3	105.892515E-3	-400.000000E-3
84.384394E-3	5.139017E-3	11.533642E-3	-364.558935E-3	-400.000000E-3	222.481155E-3	105.795145E-3	-400.000000E-3
84.382963E-3	5.150175E-3	11.542606E-3	-364.619923E-3	-400.000000E-3	222.403336E-3	105.710936E-3	-400.000000E-3
84.380293E-3	5.158234E-3	11.571455E-3	-364.644814E-3	-400.000000E-3	222.356939E-3	105.660105E-3	-400.000000E-3
84.377003E-3	5.164814E-3	11.585665E-3	-364.657068E-3	-400.000000E-3	222.333479E-3	105.629921E-3	-400.000000E-3
84.377909E-3	5.167294E-3	11.623764E-3	-364.665031E-3	-400.000000E-3	222.321463E-3	105.613232E-3	-400.000000E-3
84.377432E-3	5.169630E-3	11.653805E-3	-364.660311E-3	-400.000000E-3	222.317553E-3	105.601120E-3	-400.000000E-3
84.374237E-3	5.183315E-3	11.664295E-3	-364.631128E-3	-400.000000E-3	222.335434E-3	105.618286E-3	-400.000000E-3
84.374285E-3	5.185843E-3	11.662674E-3	-364.626598E-3	-400.000000E-3	222.325802E-3	105.610800E-3	-400.000000E-3
84.375429E-3	5.186462E-3	11.667871E-3	-364.628506E-3	-400.000000E-3	222.322941E-3	105.606747E-3	-400.000000E-3
84.374142E-3	5.196524E-3	11.652517E-3	-364.610815E-3	-400.000000E-3	222.334385E-3	105.622435E-3	-400.000000E-3
84.372139E-3	5.199051E-3	11.641598E-3	-364.579630E-3	-400.000000E-3	222.361040E-3	105.642509E-3	-400.000000E-3
84.372902E-3	5.196285E-3	11.648989E-3	-364.577007E-3	-400.000000E-3	222.363710E-3	105.634403E-3	-400.000000E-3
84.374571E-3	5.194378E-3	11.651182E-3	-364.595127E-3	-400.000000E-3	222.341251E-3	105.613089E-3	-400.000000E-3
84.375048E-3	5.193377E-3	11.658192E-3	-364.590263E-3	-400.000000E-3	222.342014E-3	105.612469E-3	-400.000000E-3
84.376383E-3	5.193520E-3	11.650467E-3	-364.552307E-3	-400.000000E-3	222.378206E-3	105.647278E-3	-400.000000E-3
84.377241E-3	5.202723E-3	11.651182E-3	-364.495087E-3	-400.000000E-3	222.429180E-3	105.691004E-3	-400.000000E-3
84.376431E-3	5.207586E-3	11.635971E-3	-364.515829E-3	-400.000000E-3	222.395229E-3	105.655289E-3	-400.000000E-3
84.375334E-3	5.208015E-3	11.627579E-3	-364.542913E-3	-400.000000E-3	222.356987E-3	105.618429E-3	-400.000000E-3
84.375572E-3	5.219746E-3	11.664295E-3	-364.535189E-3	-400.000000E-3	222.361422E-3	105.616522E-3	-400.000000E-3
84.376478E-3	5.222988E-3	11.680746E-3	-364.553881E-3	-400.000000E-3	222.348452E-3	105.593443E-3	-400.000000E-3
84.379482E-3	5.242491E-3	11.710358E-3	-364.594841E-3	-400.000000E-3	222.305012E-3	105.542517E-3	-400.000000E-3
84.380770E-3	5.257607E-3	11.771536E-3	-364.554024E-3	-400.000000E-3	222.341681E-3	105.568361E-3	-400.000000E-3
84.382057E-3	5.252647E-3	11.791182E-3	-364.530134E-3	-400.000000E-3	222.366905E-3	105.580521E-3	-400.000000E-3
84.380722E-3	5.244207E-3	11.771584E-3	-364.490557E-3	-400.000000E-3	222.408962E-3	105.614567E-3	-400.000000E-3
84.380198E-3	5.250263E-3	11.775255E-3	-364.492798E-3	-400.000000E-3	222.403812E-3	105.606031E-3	-400.000000E-3
84.379339E-3	5.259180E-3	11.791897E-3	-364.473438E-3	-400.000000E-3	222.420931E-3	105.623055E-3	-400.000000E-3
84.375906E-3	5.274773E-3	11.802101E-3	-364.410830E-3	-400.000000E-3	222.481394E-3	105.680752E-3	-400.000000E-3
84.374237E-3	5.284977E-3	11.819029E-3	-364.377356E-3	-400.000000E-3	222.517204E-3	105.716515E-3	-400.000000E-3
84.374809E-3	5.305290E-3	11.846209E-3	-364.362144E-3	-400.000000E-3	222.539854E-3	105.735207E-3	-400.000000E-3
84.375668E-3	5.318975E-3	11.869049E-3	-364.349890E-3	-400.000000E-3	222.560978E-3	105.746555E-3	-400.000000E-3
84.376383E-3	5.335951E-3	11.916256E-3	-364.302349E-3	-400.000000E-3	222.609711E-3	105.788326E-3	-400.000000E-3
84.376097E-3	5.355644E-3	11.954355E-3	-364.245844E-3	-400.000000E-3	222.664833E-3	105.839539E-3	-400.000000E-3
84.376621E-3	5.354691E-3	11.970282E-3	-364.234400E-3	-400.000000E-3	222.681522E-3	105.851364E-3	-400.000000E-3
84.375429E-3	5.358648E-3	12.005758E-3	-364.242172E-3	-400.000000E-3	222.675085E-3	105.842733E-3	-400.000000E-3
84.375525E-3	5.360508E-3	12.039709E-3	-364.216614E-3	-400.000000E-3	222.701168E-3	105.864477E-3	-400.000000E-3
84.375286E-3	5.366468E-3	12.045193E-3	-364.200830E-3	-400.000000E-3	222.716045E-3	105.876493E-3	-400.000000E-3
84.375763E-3	5.371761E-3	12.045717E-3	-364.213753E-3	-400.000000E-3	222.703123E-3	105.858374E-3	-400.000000E-3
84.376764E-3	5.368185E-3	12.068796E-3	-364.204216E-3	-400.000000E-3	222.711563E-3	105.864096E-3	-400.000000E-3
84.376621E-3	5.367470E-3	12.081671E-3	-364.232254E-3	-400.000000E-3	222.677708E-3	105.825996E-3	-400.000000E-3
84.375095E-3	5.367661E-3	12.098265E-3	-364.230585E-3	-400.000000E-3	222.672415E-3	105.816221E-3	-400.000000E-3
84.373713E-3	5.365562E-3	12.113905E-3	-364.209270E-3	-400.000000E-3	222.687626E-3	105.833435E-3	-400.000000E-3
84.374857E-3	5.365562E-3	12.110853E-3	-364.198685E-3	-400.000000E-3	222.692537E-3	105.837727E-3	-400.000000E-3
84.376478E-3	5.368280E-3	12.108898E-3	-364.218664E-3	-400.000000E-3	222.665691E-3	105.805683E-3	-400.000000E-3
84.377432E-3	5.376720E-3	12.120962E-3	-364.261246E-3	-400.000000E-3	222.616720E-3	105.747890E-3	-400.000000E-3
84.378052E-3	5.373335E-3	12.133837E-3	-364.217377E-3	-400.000000E-3	222.658157E-3	105.782080E-3	-400.000000E-3
84.377003E-3	5.366373E-3	12.133741E-3	-364.173508E-3	-400.000000E-3	222.706938E-3	105.819130E-3	-400.000000E-3
84.375858E-3	5.357265E-3	12.123156E-3	-364.165783E-3	-400.000000E-3	222.715950E-3	105.822754E-3	-400.000000E-3
